timestamp_ns,ch0,ch1,ch2,ch3,ch4,ch5,ch6,ch7,ch8,ch9,ch10,ch11,ch12,ch13,ch14,ch15
1781252165454707000,68833,70548,82039,68178,101054,75206,59355,61660,-563080,-4944626,8148643,7428051,-6806519,-7386049,5391316,-5580744
1781252165454707000,42611,47221,59385,40793,87711,55636,44532,55789,-379562,-7308578,7602451,-7138079,-5209367,-5878246,4911731,-6341770
1781252165454707000,-5713,3856,16424,-7763,58518,20692,15219,47622,-118311,-7380877,-7917917,-5064066,-5904543,-4509281,4681101,-5208720
1781252165454707000,-67811,-51625,-38846,-69268,20989,-21996,-21166,43314,131559,-5460287,-5310498,-5185877,-6732224,-5216602,4721075,-4234850
1781252165454707000,-133531,-109898,-96997,-133869,-17287,-64660,-57204,46182,289536,-5662558,-5496281,-5467620,-7634439,-5874739,4996428,-5233406
1781252165454707000,-190648,-159690,-146757,-189591,-47704,-98333,-84331,58790,303756,-7758764,-8147749,-4084711,8240685,-4613765,7304573,-5975266
1781252165454707000,-225464,-188742,-174599,-223634,-59497,-113607,-92155,82566,162678,7209959,7770623,-3224743,-7481206,-5500532,7483533,-4536360
1781252165454707000,-233516,-193411,-177923,-231563,-52926,-109352,-80874,112359,-109188,5720331,-8082002,-4746087,-6574476,-8256929,7585632,-4991232
1781252165454707000,-216441,-175991,-160273,-214973,-33875,-89816,-56317,139651,-455413,6423705,-7312222,-8246746,-7658825,8000180,7567102,-7132366
1781252165454707000,-181321,-143602,-130455,-180538,-12378,-62802,-28325,155324,-801180,7099693,-6524413,7290979,8271854,7618411,7421927,-6971724
1781252165454707000,-134935,-102858,-94765,-134979,5739,-34596,-2820,154222,-1067512,5781275,-5593885,8206894,7739603,7397195,-7717377,-4872250
1781252165454707000,-78702,-54677,-51367,-80284,24892,-4503,23851,140083,-1186521,6461020,-6343223,-7583179,7555448,7352675,-6412386,-5003892
1781252165454707000,-21520,-7057,-7673,-25178,40841,21984,46985,113584,-1127768,6939754,8283099,-6515281,-7200651,7485603,-5386837,-5297992
1781252165454707000,27610,32255,28459,21687,49245,40125,62052,77716,-900086,5295878,6842984,-7261166,-7100200,7779940,-6429546,-5761390
1781252165454707000,60935,56891,50510,53138,46819,46325,65479,36355,-549926,3704697,7866147,-7680245,-6869418,6322699,-7259019,-6356022
1781252165454707000,76315,65626,57403,67238,35090,41698,58551,-3563,-149128,2226632,-7808418,-7800929,-4717332,5242477,-5882610,-7007798
1781252165454707000,74009,59252,49800,64490,16141,28306,43248,-36648,217996,916286,8015266,7208163,-2912971,6374110,-6310717,-7627652
1781252165454707000,57793,41763,31436,48884,-6056,10290,23471,-57872,474091,-185083,-7914745,7756709,-1555522,7452084,-8290797,-6254346
1781252165454707000,33625,18751,7878,26182,-26991,-7611,3840,-64900,564297,-1056182,-7527974,8363237,-682769,8337532,7077695,-5010278
1781252165454707000,9353,-2641,-13593,3989,-41216,-19876,-10099,-56476,468887,-1696632,7270821,-7876998,-2143433,-5979954,6157726,-5774184
1781252165454707000,-10051,-18251,-29071,-13004,-47330,-24670,-16658,-36004,204117,-2128024,5187377,-5631859,-3672695,-4191768,5579792,-8249104
1781252165454707000,-20529,-24844,-35529,-21006,-44651,-20902,-14988,-7686,-178780,-508994,3185997,-3912936,-5123008,-4982471,7044336,6539486
1781252165454707000,-21306,-22323,-32714,-19458,-34936,-10246,-6601,22309,-606227,2811915,3332943,-2748519,-6370490,-7984028,8199209,6917142
1781252165454707000,-12888,-11672,-21575,-9139,-20272,5291,6542,49247,-996016,3708779,5472043,-2083160,-7333870,5932403,-7887544,7417988
1781252165454707000,652,2820,-6227,5759,-4999,21141,20216,67929,-1276103,4312761,7468690,-3673170,6913994,3421829,-5840032,6029282
1781252165454707000,15075,17159,9242,21066,7398,33790,30954,76111,-1396917,6557228,7414521,-5178596,4975392,1417127,-4565574,4812950
1781252165454707000,25408,26660,20122,31872,13415,39674,35151,72697,-1341518,6471744,5566028,-6413453,5463467,1871326,-5826562,3714216
1781252165454707000,25510,25821,19684,32544,7615,34659,27507,57283,-1129172,4431721,5952652,7643262,6097212,2593459,-7236285,4574076
1781252165470090800,5550,5669,-3360,14355,-20794,11195,-2340,26517,-812570,2734460,6359110,5652515,6716929,3471589,-6645885,7074892
1781252165470090800,-8282,-8551,-16217,898,-35818,-5073,-20079,4086,-436766,1516308,4807959,6248163,-7698189,6262543,-6003275,-7746210
1781252165470090800,480251,528856,530116,505121,659983,671605,673277,1017301,2258971,3188097,5766355,-7312423,-5259705,-7522491,-4615469,-5543798
1781252165470090800,-150416,-161428,-165269,-145305,-215147,-189342,-207739,-260272,3542608,3833384,5397622,-7280136,-6549459,-6319092,-6212460,-7376232
1781252165470090800,-141351,-149423,-151288,-135518,-190221,-168768,-187442,-221586,3084111,5099640,3548109,-6839134,7635773,-4875636,8292206,6697322
1781252165470090800,-123577,-128620,-128625,-117187,-155719,-139165,-157928,-173613,2483885,8050882,1783235,-4827319,7215708,-5745953,-8194124,4508802
1781252165470090800,-99431,-101793,-100304,-92731,-116470,-104803,-123898,-124045,1826738,-8276985,2081558,-5339031,-7932592,8274875,-5768736,2985866
1781252165470090800,-70521,-71033,-68251,-64007,-75569,-68919,-88286,-78704,1208744,6662918,2368147,-6166576,-8231715,7868834,-5481833,4036504
1781252165470090800,-41631,-41263,-37469,-35893,-38803,-37027,-56579,-44120,713783,6643131,2704949,-5276498,6615114,7788615,-5376288,5386454
1781252165470090800,-17155,-16763,-12209,-12642,-10236,-13030,-32525,-23187,399355,8276297,5030598,-6534859,7099453,8056341,-3676490,4943738
1781252165470090800,163,57,5533,2995,9148,1378,-17103,-15367,285831,-7273893,7208345,-7604132,7769385,-6288163,-2581475,6533208
1781252165470090800,9539,8892,16229,10343,21352,7307,-8289,-16377,354479,-6340758,7351009,-6440940,6596215,-3998681,-2050051,-7102954
1781252165470090800,6533,5912,15119,5415,22731,2418,-9360,-24595,548770,-7447789,7628944,-7021773,7473671,-2043742,-3817476,-6634992
1781252165470090800,-10655,-10135,-85,-13069,11969,-13267,-21453,-36513,792462,6613037,-6846338,7692909,-6793896,-2454621,-5495837,-6747622
1781252165470090800,-38121,-35195,-25096,-41112,-6114,-35105,-39701,-46432,1008880,4592826,-6605465,8134786,-6828208,-5010436,-6837001,-5479088
1781252165470090800,-70006,-63544,-53806,-72941,-25516,-57442,-58262,-49186,1135040,3332686,-8207485,-6117309,-7289009,-5623718,7235433,-4832186
1781252165470090800,-100607,-90076,-80837,-103120,-41889,-75965,-72837,-43054,1133287,4646088,7259418,-5781061,-6215283,-4494595,7291130,-6478346
1781252165470090800,-124196,-109590,-100859,-126112,-51364,-86800,-79710,-28060,999157,8058789,8088486,-7557113,-5631600,-5601319,-7004635,-7990142
1781252165470090800,-132359,-114662,-105038,-134117,-46682,-84353,-71961,-3853,762741,-5645668,-7961694,7403178,-7242860,8212657,-4476263,-7231866
1781252165470090800,-125412,-106094,-95262,-127507,-31564,-71074,-53218,23356,472822,-5055808,7461775,7419198,6238489,7586796,-4066611,-6223766
1781252165470090800,-110232,-90887,-80665,-112660,-17057,-55200,-34325,43035,185970,-6806589,8022000,7133747,5536814,7253218,-5730933,-4955640
1781252165470090800,-92220,-74526,-67958,-94661,-10784,-42730,-22786,48354,-41456,8061838,8330357,6611332,5408419,7243242,-7436765,-3503032
1781252165479714800,-67219,-53171,-50477,-70015,-5274,-29673,-11639,42646,-160853,8004154,6519935,7853422,3965676,7536307,-7346509,-2004228
1781252165479714800,-36816,-28015,-28467,-40481,757,-16172,-20,27901,-153040,7776950,4828806,6955539,5145765,8062216,-7623633,-627952
1781252165480400300,-5450,-2905,-5748,-10466,5371,-4578,9887,5651,-30404,5633415,5248926,4345469,-8311305,-6185447,-8221674,466692
1781252165480400300,22680,18910,14301,16260,7316,3740,16701,-20379,169029,5761182,5690510,2352043,-5309615,-3954025,-7141848,-707610
1781252165480400300,44511,35085,29129,36961,6026,8222,19765,-46197,390904,6103765,6178108,1082068,-4788202,-4034505,-6395540,-3883978
1781252165480400300,59414,45653,38651,51150,3233,10325,20628,-66601,577554,4797324,6720123,2399265,-4745303,-4317494,-7704819,-4935888
1781252165480400300,66495,50008,42264,58096,-877,10307,19420,-79080,678595,5854378,5427662,3993378,-5200050,-4776881,8050166,-5919730
1781252165480400300,67188,49722,41348,59347,-4782,9888,17664,-81473,664640,7028401,6329269,5626245,-6068334,-7229951,-7425603,-6759752
1781252165480400300,63458,46556,37695,56737,-7461,10124,16445,-74292,531791,8166160,7224382,7055983,-5310172,7357703,-5915615,-5513774
1781252165480400300,58873,43691,34569,53625,-6652,12996,17929,-58480,303747,-5780352,6150396,6210837,-4900551,7410440,-6135219,-4321772
1781252165480400300,54351,41410,32291,50729,-3738,17386,20934,-38522,23346,-5428979,7086194,5159210,-6538001,-7328544,-7897585,-3204536
1781252165480400300,50793,40165,31071,48880,20,22457,24330,-18583,-254641,-5455021,-7080761,5792746,7032433,-5521935,-7265596,-4060132
1781252165480400300,48463,39704,30854,48103,3269,26841,26871,-2967,-476140,-5807154,-6913362,6006975,6471924,-5901708,-6551619,-4729252
1781252165480400300,47793,40256,31974,48730,5891,30097,28400,6343,-598425,-6373152,7850994,4021114,6458542,-8206615,-5947966,-5206254
1781252165480400300,47584,40445,33151,49419,6427,30800,27581,7597,-600851,-5129883,7780013,4041241,6906921,-8354655,-3734398,-7395924
1781252165480400300,47113,39770,33689,49509,4789,28759,24350,1758,-487196,-5984302,7593476,4078538,7649009,-6594198,-4057806,7607292
1781252165480400300,44951,37016,32333,47586,476,23674,18304,-9640,-285901,-6656738,5490783,4245875,-8302881,-5110540,-6645493,8082686
1781252165480400300,37481,29216,24797,40616,-9971,13562,6092,-25646,-44864,-7040828,3726113,6489387,-5722169,-3931090,7569937,-6353358
1781252165480400300,25801,17536,12807,29653,-23950,505,-9774,-42269,183416,7805627,4257688,6764481,-3721903,-3042851,7100136,-6325354
1781252165480400300,15856,7929,3638,20345,-32954,-9008,-21205,-52234,353450,6481473,6800858,5310302,-4276364,-4271370,6711545,-6531780
1781252165480400300,8051,1026,-2406,13135,-36603,-14207,-27689,-54261,428424,5691095,-7671744,4259831,-5174567,-5360487,6491649,-5082700
1781252165480400300,4146,-1509,-3738,9753,-33509,-13549,-27792,-47183,392967,7161451,-5711533,5440459,-4369426,-6200780,6486201,-4090546
1781252165480400300,5330,1250,659,11168,-23065,-6625,-20987,-32037,254657,-6383593,-4158889,-8324277,-3831880,8171181,6688663,-3473462
1781252165480400300,11015,8544,9487,16875,-7403,5083,-9274,-11655,40773,-3794023,-3021908,-7679368,-5261010,6388264,7043385,-3097492
1781252165480400300,19054,18083,20216,24836,9933,18545,4070,9446,-207799,-2020850,-4130534,7554097,-6314787,7076919,7458336,-4685300
1781252165480400300,29102,29269,32533,34540,28008,32671,18196,28942,-443116,-2973935,-5210950,6000915,-4981967,-6953335,-7072372,-7788704
1781252165480400300,38468,39385,43498,43249,43631,44423,30048,43285,-623431,-4368105,-4244915,6398378,-5299127,-4521939,-5272282,6676520
1781252165480400300,45101,46491,51148,49082,54845,51950,37893,51217,-719207,-4085857,-3307868,6657943,-5199964,-4484822,-5884374,5209098
1781252165496340600,53313,54771,62300,55909,69134,59881,48924,57147,-714003,-4036824,-4250072,4958652,-4825747,-4775606,8168820,4502950
1781252165496340600,54460,56065,65435,55446,75390,60565,52574,56519,-623115,-4018387,-4889861,5419174,-6248305,-3506031,7491389,6232720
1781252165496340600,546812,598817,610506,561442,773411,740612,749672,1078241,1859297,-3349677,-2842095,8284463,-5023625,-2196833,-7482085,-6181140
1781252165496340600,-90096,-98025,-89969,-94097,-107580,-124394,-133081,-200454,3043553,-3578260,-3850240,7959984,-5362538,-4508203,-7161772,-6048514
1781252165496340600,-88487,-92643,-84361,-92409,-90578,-110974,-116308,-164269,2595589,-2887725,-4071451,8231442,-7213593,-6060659,-6227124,-7382952
1781252165496340600,-88841,-88735,-80688,-92319,-74601,-97676,-99689,-124515,2094738,-3868816,-4219972,-8292806,7602711,-5518594,-7239045,-7180006
1781252165496340600,-90330,-86002,-78378,-93193,-60384,-85346,-84084,-85141,1592064,-6335884,-6242941,-8082461,7494824,-6792959,-7969292,-7537628
1781252165496340600,-91694,-83718,-76607,-93899,-48393,-74453,-70094,-49963,1141264,-8225812,-8013614,-7941868,7186697,-7657005,-6486826,6577066
1781252165496340600,-87548,-77158,-69186,-89811,-33387,-61664,-52797,-19422,791181,-7777174,7242188,7008176,4917591,-6211337,-4977141,5872728
1781252165497863900,-79373,-67947,-58830,-82216,-19042,-49304,-35858,2307,568492,-7320989,7834304,5384988,2999659,-4695548,-5403574,5197410
1781252165497863900,-74665,-63440,-55437,-77775,-16533,-45125,-29980,7667,473313,-7031441,-6563453,5873675,3447910,-5131699,-5676608,2836374
1781252165497863900,-73046,-63273,-58579,-76124,-25348,-48469,-34666,-2261,490424,-7003899,-4629594,6306914,4140894,-7351329,-3969297,2948984
1781252165497863900,-67466,-60337,-58678,-70763,-34428,-51767,-39534,-19421,591634,7657817,-3184227,6656256,3144931,-7369199,-2518789,5276694
1781252165497863900,-56661,-53024,-53676,-60525,-40352,-52292,-41331,-38680,733200,5649204,-4078868,6914662,2534896,-7394400,-3278779,7541624
1781252165497863900,-41773,-42071,-44259,-46444,-42401,-49600,-39464,-56544,867704,3892888,-6926293,7097538,2201440,7414590,-5970113,-7212368
1781252165497863900,-24133,-28158,-31436,-29580,-40157,-43169,-33578,-69406,954773,4392609,-7524135,-7660486,1999097,7540747,-6479959,-5589190
1781252165497863900,-6721,-13851,-17962,-12772,-35416,-34721,-25576,-76293,967069,6916810,-7912830,-7819108,1776047,-7280020,-6902411,-4468414
1781252165497863900,9464,84,-4578,3123,-28209,-24279,-15563,-75719,897092,7383967,-8062238,6945694,1407994,-7543045,-7216264,-5745286
1781252165497863900,22212,11630,6520,16042,-20631,-13824,-5698,-69238,754029,7885936,-7999040,5329364,821309,-7844726,-7415266,7730926
1781252165497863900,30717,19877,14167,25134,-14052,-4571,2687,-58426,562245,-6534197,-7795620,4178805,1884940,-8117252,7391884,4757532
1781252165497863900,34455,24075,17749,29750,-9783,2188,8294,-46182,354034,-6451511,-5674400,3491586,2473787,-8303376,5807837,4192244
1781252165497863900,34757,25297,18632,31121,-7152,6823,11683,-34002,163243,-6555307,-3917306,3195515,2670269,-6494168,4600235,5871632
1781252165497863900,31986,23574,16822,29505,-6992,8595,12208,-24505,16107,-4982686,-4504724,3163250,2619676,-6750390,3717184,5763230
1781252165497863900,27485,20062,13219,26122,-9028,8060,10213,-18462,-72351,-3898539,-5281215,5116930,621760,7949648,3076669,5989150
1781252165497863900,21762,15098,8234,21423,-13231,5169,5611,-16871,-101897,-3280043,-4291035,-8178173,-973973,8085376,2580886,6496134
1781252165497863900,16923,10731,4189,17442,-17170,1980,899,-17785,-83596,-4914718,-5481857,-5493057,-2015362,8240938,2136468,5313558
1781252165497863900,13640,7725,2003,14834,-19732,-601,-2766,-19821,-38718,-8359360,8319988,-5559692,-577364,6462606,1669390,4502810
1781252165497863900,12966,7288,2743,14719,-19402,-868,-3781,-20525,8750,5534893,7754421,-6138287,2976713,6746492,1138189,5842908
1781252165497863900,14087,8690,5427,16201,-16735,698,-2697,-19251,36091,5262225,-7367009,-5152907,6290085,-7998140,535465,-7867126
1781252165497863900,12932,8118,5021,15704,-16617,824,-4150,-17663,25865,7359238,-7557190,-6423003,-7632934,-8307627,-114785,-5397378
1781252165497863900,10174,6268,2785,13788,-17656,371,-6826,-14830,-24525,-7202778,7391217,-7562440,-7270905,7985587,-765229,-3632694
1781252165497863900,9768,6911,3729,14058,-14317,3060,-5464,-7665,-103593,-5025620,6022077,-6481174,7618364,7416877,-1358796,-4447114
1781252165497863900,9637,7883,5411,14463,-9357,6579,-2834,1179,-196201,-3048667,6901175,-5238859,7602206,4998641,29797,-5556344
1781252165497863900,9845,9199,7629,15033,-3373,10566,538,10458,-280707,-1403596,7717876,-5721671,-7479099,4901699,3127630,-6753746
1781252165497863900,10301,10575,10313,15520,3158,14252,4148,18352,-336680,-2049617,8302954,-7699705,-6140818,5056031,5734617,-7831970
1781252165497863900,10109,11071,12014,15180,8372,16454,6328,23183,-350272,-4706014,-8237816,7694085,-5070542,3590088,5942947,-6744844
1781252165497863900,8086,9520,11257,12881,10413,15736,5312,23261,-317429,-5257119,8383373,-8111828,-6039626,3224925,6545024,-7123284
1781252165497863900,4755,6349,8997,9336,10150,12992,2244,19448,-243499,-3916301,-7030017,-5258775,-6766187,3881068,5723751,-7846098
1781252165498388400,2507,4044,7282,6360,10212,10025,-628,14547,-143997,-2845686,-8098305,-2909962,-7150330,5303877,5642121,-5912482
1781252165498388400,290,1828,5671,3267,10253,6997,-3076,9334,-42004,-3945360,5607368,-3111385,-7168247,6557715,7498688,-5880682
1781252165498388400,1070,2717,8050,2978,14948,7380,-737,8324,40209,-5033671,4791777,-3723795,-4993906,7483600,7281982,-7593860
1781252165498388400,1789,3824,10760,2544,20773,8740,3115,10582,78971,-4191372,4251547,-2763180,-4798199,7982341,7163185,-7091688
1781252165498388400,-303,2685,10126,-308,24140,8968,5191,15218,59007,-3571787,4069033,-2239621,-4569273,-6866677,-7733272,-6612170
1781252165498388400,-4901,-408,6732,-5235,25648,8361,6036,22494,-21345,-3183503,6129663,-1985520,-4414674,-7508533,-6033842,-8120312
1781252165498388400,-10484,-4095,2481,-10886,26981,8123,7359,33061,-151048,-4884233,8191339,-1818390,-6290502,6460218,-6436536,7296150
1781252165498388400,-16614,-8067,-2217,-16920,28019,8092,8974,45406,-310308,-8323122,8238614,-3460266,-8052155,5740286,8118729,7980388
1781252165498388400,-22049,-11531,-6277,-22182,29368,8665,11389,58232,-472304,5554545,8327345,-4633189,-7785035,7027756,6290605,-6350844
1781252165498388400,-22318,-10437,-4236,-22829,36055,13031,19285,72376,-606813,5172072,-8380550,-5291627,-5749449,8265825,6777582,-6216532
1781252165498388400,-18825,-6223,1507,-20088,44957,19199,29658,84651,-692436,5150494,6528283,-5501662,-5989450,7615762,7387994,-8113372
1781252165498388400,-18075,-5421,2319,-19838,46301,20348,33137,88086,-720168,3537679,6765564,-5419588,-8190658,5387983,8033544,6962762
1781252165520734000,-23771,-11344,-7271,-25371,34067,12426,23866,78959,-689565,4295770,6967144,-7124356,6688847,5645532,-8152468,5527134
1781252165520734000,-27291,-16111,-14733,-28664,21553,4584,14640,64794,-599853,7056709,7134964,8143413,7075890,6184738,7212315,6255552
1781252165520734000,432002,492462,482833,450017,660036,649630,660131,1044850,1833977,-6788379,-7117949,-7732841,-6715709,7454533,8376641,-7205936
1781252165520734000,-127399,-132826,-131985,-133803,-144601,-154649,-146128,-199072,3038577,-5344353,-6000846,-8185140,-7110959,-7440636,8092081,-6052466
1781252165520734000,-100198,-106299,-106772,-106313,-121293,-128043,-119790,-172557,2573260,-5654925,-4551557,8370329,-6783811,-5235605,8342702,-6377918
1781252165520734000,-71276,-77916,-79449,-77123,-95447,-99150,-91096,-143059,2072324,-7996645,-3378018,7844031,-4642840,-5421170,-8369573,-7011322
1781252165520734000,-43211,-50337,-52710,-48844,-69846,-70825,-62862,-113611,1592355,-8205573,-2438177,7150471,-2914606,-7708956,6444093,-6007532
1781252165520734000,-20310,-27766,-30793,-25643,-48966,-47473,-39700,-88991,1183828,-8336258,-3559529,8348893,-1653121,-7945942,4686429,-5438090
1781252165520734000,-3995,-11763,-15441,-8926,-34744,-30704,-23522,-71256,884390,6551513,-4511964,7566569,-848541,-6286622,3224262,-7066990
1781252165520734000,4452,-3626,-7944,-60,-28676,-22129,-15823,-62230,709870,5083771,-3356528,5224386,-2308555,-4827758,2107274,6339334
1781252165520734000,6282,-2054,-6895,2333,-29158,-20383,-15149,-60735,654152,4024491,-2263464,3605818,-5611753,-3536052,1340519,5475180
1781252165520734000,2848,-5816,-11072,-572,-35019,-24170,-20276,-65358,689801,5171442,-3171015,4617808,8365825,-2383058,886237,6973200
1781252165520734000,-3576,-12488,-18096,-6413,-43737,-30952,-28612,-72990,776214,6221209,-3955894,5974804,6219842,-3229081,2551980,6796094
1781252165520734000,-10917,-19854,-25721,-13035,-52817,-38340,-37612,-80967,868041,7013750,-4631551,7437258,4777808,-5768975,5947929,7039158
1781252165521317900,-16319,-25152,-31045,-17697,-58996,-43292,-43981,-85663,925803,-7454640,-7093758,-8035988,3985621,-5932526,6908834,7612406
1781252165521317900,-18432,-27048,-32532,-19216,-60586,-44343,-46126,-85339,922232,-7713495,-7302154,7776629,5575721,-4032976,5661831,8380590
1781252165521317900,-16447,-24512,-29313,-16625,-56598,-40446,-42960,-78792,848159,-8325941,-5546787,-8328820,7164719,-2353758,4434433,-5709418
1781252165521317900,-11206,-18532,-22295,-10876,-48034,-32601,-35484,-67152,711712,7648106,-5924617,-6344324,6631379,-1031225,5223380,-5305628
1781252165521317900,-6570,-12903,-16406,-5402,-40136,-24614,-28716,-54126,533997,6851853,-6305899,-5191996,5974577,-145300,5954489,-5139256
1781252165521317900,-4787,-9933,-14020,-2493,-35650,-19173,-25388,-42833,346081,8132010,-6666361,-4756805,7005128,298865,6672081,-3357410
1781252165521317900,-1587,-5722,-9590,1439,-28851,-12564,-20046,-30973,184873,-7319157,-6972168,-6689081,-7358472,-1501888,7405288,-3987872
1781252165521317900,822,-2398,-5545,4351,-22467,-7202,-15344,-21446,74603,-5905241,-5318107,8254205,-5713144,-5110180,6278196,-6683558
1781252165521317900,2247,-304,-2352,6036,-16983,-3541,-11944,-14966,28307,-4413490,-5747006,6828865,-4754617,-6276063,7323485,-7258822
1781252165521317900,2952,807,319,6589,-12171,-1446,-9455,-11634,43495,-2904699,-6108070,4150411,-4317830,-7004692,8336340,-7746666
1781252165521317900,2468,575,1644,5814,-8874,-1130,-8625,-11104,102996,-3353716,-6392044,2481253,-4192774,7648596,7342969,-8088172
1781252165521317900,279,-1391,901,3333,-7934,-2788,-10065,-13080,179538,-5568792,8289245,3659143,-4168703,8148727,8310484,-8265550
1781252165521317900,-1609,-3061,111,1110,-6908,-4234,-11366,-14706,244378,-7443857,-8368366,5302304,-5949836,-7773514,-7758661,-8299234
1781252165521317900,-2850,-3906,-188,-472,-5062,-4716,-11809,-14666,271232,7742495,-6355237,7071294,7650615,-6766786,7529475,-6363652
1781252165521317900,-3043,-3420,404,-896,-1823,-3456,-10632,-11525,243750,6358054,-6585864,-8157315,7188962,-5827318,6014881,-4703840
1781252165521317900,-1437,-966,3026,429,4047,312,-6581,-4484,159462,5099594,7933039,-7111831,-7670391,-5149288,4542663,-3403536
1781252165521317900,3561,4921,9790,4924,14813,8040,2496,7745,30707,5779177,7710173,-4856894,-7605814,-4866266,3188305,-2487192
1781252165521317900,7800,10248,15803,8736,25204,15568,11497,21196,-122882,6173851,-7494873,-3594340,7448716,-6908342,2018374,-3793592
1781252165521317900,8913,12591,18011,9572,31862,20362,17274,33005,-273719,6253086,-8153975,-3228131,7835354,7716818,1079884,-6922890
1781252165521317900,6459,11448,16329,7032,34212,21647,19250,41465,-392601,7934527,7941768,-5394428,8068778,5587200,390934,7238520
1781252165521317900,1008,7192,11303,1614,32591,19467,17708,45913,-456265,-7642871,-7562684,7316360,6205639,5499697,1814110,5285630
1781252165521317900,-7223,-61,3318,-6631,27106,13628,12681,45350,-453230,8080286,-8300957,5774030,4441181,7271801,5000173,5926338
1781252165521317900,-16462,-8686,-5866,-15965,19402,5738,5821,40904,-384911,7098960,6074749,6749009,4760954,6899689,7678440,6928592
1781252165521317900,-21955,-14147,-10368,-22106,15538,141,2817,35903,-264097,8247187,6133639,8150667,6972781,6574157,-7013324,6244856
1781252165521317900,-23012,-15684,-10036,-24188,15801,-2340,4039,31555,-116967,-7318423,-8388505,-6890277,-7823679,8219398,-7406132,5855760
1781252165521317900,-22313,-15774,-8672,-24571,16088,-4093,5622,26382,22836,-7913379,-6193666,-6884814,-7936826,7797719,-8030260,5591270
1781252165521317900,-23024,-17315,-10647,-25846,11940,-7571,3287,19146,123238,6728752,-6076516,8236432,6953759,7461603,-6858451,7163104
1781252165521317900,-26235,-21214,-17189,-28850,2037,-13574,-4161,9663,161479,7068083,-5977474,6899748,5505770,7224489,-5924840,8257820
1781252165521317900,-24364,-20124,-18523,-26737,-2887,-14607,-6530,4937,134097,-7260721,-4073497,7610574,4501237,7088476,-7010972,6899798
1781252165521317900,-16769,-13436,-13415,-19046,-1248,-9855,-2397,5698,45402,-6915642,-4461094,8064945,5733762,7043119,-7854484,5270452
1781252165521317900,-4635,-2347,-3245,-6968,5826,-356,6968,11359,-89170,8234710,-6875395,8170564,6874469,7072416,-8372658,3490178
1781252165521317900,8845,10175,8670,6450,14859,10805,18168,18987,-246403,-8156014,7688431,-6962108,5845496,7158404,6351398,1711916
1781252165521317900,22040,22419,20485,19603,24036,21961,29349,26919,-398193,-6050872,5764961,-5853823,6556102,5409200,4900607,1967138
1781252165521317900,32643,32160,29830,30230,30817,30656,37900,32655,-519094,-6281737,6063088,-7013703,-8113648,3993385,5863913,4075428
1781252165521317900,39626,38359,35418,37301,33952,35895,42548,35068,-589892,8259549,8290103,-8057539,-6787400,2926273,-7963938,4027628
1781252165521317900,41832,39865,36155,39771,32193,36423,42058,32828,-601981,8194424,8331021,-6875657,-6163503,4062420,-7264601,4004952
1781252165551334000,39588,37096,32337,37950,25954,32693,36859,26534,-557516,8264175,8288508,-7373712,-7921268,5163620,-8105797,6716134
1781252165551334000,-5295587,-6440824,-1417914,7411625,-3402966,7024984,7408290,1023786,7395152,3868861,-2841101,685724,-6873653,-1394143,4311281,8201724
1781252165551334000,1261962,1522813,353066,-1680237,799230,-1601421,-1688276,-225805,1710446,6180260,-8149888,-4855369,-5770146,4705189,-5131918,6866814
1781252165551334000,1028267,1240188,283940,-1373100,644112,-1311969,-1384192,-193165,1449809,7309856,6344787,-4433043,-5456601,5548359,-3572957,6562178
1781252165551334000,791947,954204,215484,-1059329,488674,-1015763,-1072709,-157764,1166680,-8263444,4381452,-3927403,-4736013,7989602,-4302638,6362980
1781252165551334000,580020,697445,155883,-773602,350826,-745411,-788317,-122886,890673,-7159769,4694841,-3537063,-3557190,7959534,-6896428,4425876
1781252165551334000,413070,495088,110625,-545219,243849,-528828,-560230,-92811,650609,-4446601,7009368,-3433994,-3861166,5766231,-7138897,4824984
1781252165551334000,301521,360188,80114,-393192,172559,-384238,-408688,-71507,468642,-4307555,-7683820,-5599556,-5505213,5567785,-5207588,5401684
1781252165551334000,244743,292500,61883,-322688,134898,-316930,-339585,-61960,356740,-6520129,-5916511,-5990432,-6507612,5325037,-3295602,4220116
1781252165551334000,239556,286998,60223,-317889,132435,-311491,-335089,-59006,320365,-6960129,-4511309,-4805936,-7093546,3240452,-3388516,3392294
1781252165551334000,268749,322978,69260,-358069,153345,-348534,-374734,-61464,347315,-5777126,-5345204,-5986365,-5650214,1554495,-3430960,2869032
1781252165551334000,311868,375489,82836,-416259,183940,-402596,-431845,-66447,416207,-5014753,-6191813,-7210352,-4605935,2203230,-3508622,2572816
1781252165551334000,349261,420841,95646,-465394,211656,-448078,-479249,-70718,500498,-6422812,-6947377,-6389720,-6045453,4876882,-5579373,4284422
1781252165551334000,364611,439426,102066,-485126,225034,-465894,-497322,-72085,572945,-7671484,7372326,-7403095,-5985271,7307888,-7516232,5723960
1781252165551334000,348172,419894,98220,-465291,216909,-446373,-476295,-70019,610904,8182985,7318445,-7985564,-6518122,7505945,-7430729,6779342
1781252165551334000,301065,363200,85418,-404394,188671,-388031,-414443,-62939,602839,7685447,-7383790,-8083052,7401452,5718741,-5604884,7402436
1781252165551334000,230591,278315,65648,-312454,145075,-300261,-321589,-51868,546824,7626679,-5435604,7158562,4620287,6036272,-6092504,5734068
1781252165551334000,149574,180775,42702,-205925,94626,-198404,-210833,1006057,6178863,-7122822,-7382745,390761,2291873,702493,-5093567,6688888
1781252165551334000,73738,89118,22909,-102877,48851,-99321,-109911,-264026,2892957,-6806112,-7308760,-5794870,4161827,-4876753,-5790990,5712262
1781252165551334000,13316,16616,6084,-22821,12423,-21933,-28041,-206224,2302668,-6412100,7537544,-7025037,4098264,-5428726,-6524227,5631976
1781252165551334000,-22944,-26314,-4265,23926,-8284,24272,20852,-150773,1720413,-6130172,5877134,-8287280,4350110,-7813482,7819816,5551682
1781252165551334000,-33480,-37858,-7762,34285,-12406,36237,33832,-103942,1213863,-4183157,6381434,7111272,2968842,7026681,7821792,3666508
1781252165551334000,-22639,-23404,-5702,14537,-2829,19706,16932,-69326,833501,-2796283,-8035216,5587842,2012915,7498463,-6778845,4079878
1781252165551334000,-193,5210,-815,-22813,13940,-13560,-17215,-48684,603294,-3854736,-7927250,3949748,1364561,-6708824,-6567458,4649490
1781252165551334000,21731,33241,3249,-61188,29636,-48145,-52630,-40734,517994,-6972801,-7946136,2277478,885105,-4338543,-6296194,3449410
1781252165551334000,35457,50244,8493,-81189,42063,-65485,-68351,-39386,549751,-7915525,-6185556,682426,448444,-4212471,-4204587,4474082
1781252165551334000,32221,45729,11683,-71603,44795,-55000,-53775,-40382,649575,-6795294,-6657139,-719021,-32011,-4275549,-2584886,5503984
1781252165551334000,4632,11860,6360,-31927,29771,-16810,-10412,-42841,759041,-5706585,-7153411,-1831951,1288750,-4562837,-1544154,4575674
1781252165551334000,-45535,-48966,-8447,33002,-3097,44379,55930,-43944,828383,-4644825,-5714991,-2600690,2256667,-5065229,-1102503,5689918
1781252165551334000,-113577,-129970,-35088,108578,-53381,114477,129153,-44885,821233,-3633744,-6338128,-1145537,2918593,-3855694,-3067916,6666546
1781252165551334000,-181754,-211141,-62810,183998,-105502,183777,200549,-40854,730679,-2706023,-6833827,2182452,3383126,-4906387,-5110737,7481886
1781252165551334000,-232100,-271938,-81236,246425,-143840,240824,259765,-29757,571245,-1900981,-5291248,3213094,1909209,-5958190,-7010184,8140032
1781252165551334000,-253462,-299052,-87268,281424,-160896,272167,292477,-14209,371210,-3130726,-5769941,4007309,2681625,-4997129,8205148,6788240
1781252165551334000,-241561,-286622,-81248,278500,-154903,267790,287824,821,167071,-4230987,-6145790,4541489,5505558,-5969412,7114306,5639460
1781252165551334000,-196643,-234722,-63822,236699,-126149,226806,244722,12365,-3266,-5165183,-4556228,2960021,8186854,8249651,6547997,6624630
1781252165551939500,-126759,-152634,-39011,161858,-80988,154636,168660,16971,-112431,-5907622,-5083875,3379859,-6153178,6334471,8349925,-7335796
1781252165551939500,-43932,-54676,-11137,68013,-27712,64487,73372,14301,-147895,-4566495,-5597615,5607142,-5945317,6951926,8356434,-6818066
1781252165551939500,36348,40745,14335,-27386,23024,-27226,-23916,4782,-116092,-5199207,-4203996,5640612,-7754177,-7060791,-8207208,8381824
1781252165551939500,100368,116927,33889,-104899,62599,-101948,-103498,-7849,-38782,-7537635,-3060438,3812042,7352171,-4509014,-7917389,-8032466
1781252165551939500,135841,159126,43563,-149539,82767,-145705,-150576,-20602,50153,-7512883,-2166816,2375709,7711046,-4254390,7231802,-7883772
1781252165551939500,136522,159677,41994,-151785,79734,-149273,-155490,-29358,114616,-7285763,-1489316,1404198,7922800,-6130023,7662094,6946566
1781252165551939500,102093,118156,29454,-110524,53521,-111632,-117070,-31535,123925,-6917373,-970915,2774897,7961857,-6099412,7957461,6988106
1781252165551939500,39322,42490,8904,-31927,9359,-38454,-41061,-25062,61338,-6483456,-2420981,6115523,-7058647,-4404966,6214113,-7981706
1781252165551939500,-40448,-53891,-15632,70790,-44870,57896,59657,-10260,-72877,-6065621,-3596545,-7678112,-7590474,-5059023,6503465,-6546946
1781252165551939500,-123254,-154155,-39487,180757,-99626,161450,168357,11114,-260612,-5739902,-4429786,-7087864,6728056,-7706371,-8187445,-5451268
1781252165551939500,-195806,-242263,-58949,279841,-146320,255104,267007,35020,-470182,-7444008,-6794717,-6796263,6531207,-8166574,-8341120,-6495400
1781252165551939500,-248997,-306615,-73623,351436,-180562,323011,338038,56001,-663931,-7158882,8207249,-4901294,6558059,-6609494,6345860,7507456
1781252165551939500,-278812,-341586,-84969,383779,-201620,353705,368776,67959,-805516,-7053265,-7962027,-3514499,6851073,-5178802,4555069,7197476
1781252165551939500,-278607,-340609,-86156,379288,-201757,349804,363544,72364,-861523,-7142554,-7294365,-2560788,7401936,-5779935,5008036,7281670
1781252165551939500,-252195,-308216,-78404,342430,-183508,315483,326837,67955,-818581,-5544036,8136711,-1923016,6271237,-6263831,7406723,7738378
1781252165572192100,-213056,-259308,-70993,278360,-159486,255166,261713,51381,-685729,-4411917,-8095193,-1466422,5535094,-6630897,-7282157,-6422084
1781252165572826500,-156683,-191846,-49370,212637,-117466,194258,198752,36208,-474817,-3706877,-6013148,-2937439,6970510,8000978,-7479417,-3959508
1781252165572826500,411524,435666,543306,678129,648634,840232,864232,1059015,2116179,-2834121,-4101727,-3587879,-6056109,-8091725,-7245183,-1058698
1781252165572826500,-180670,-207982,-146397,-23859,-214550,-74775,-78750,-240880,3347083,-3380300,-5843998,-4874488,-6124584,8112859,-6557417,-369004
1781252165572826500,-134822,-154693,-114285,-34667,-165619,-75570,-79971,-211520,2920952,-5246892,7747525,-5150767,-5904475,8272374,-7349346,-1106012
1781252165572826500,-104257,-119899,-86485,-24314,-126497,-56122,-59901,-173891,2406376,8105848,4884956,-5108601,-4267229,-6529565,-8128643,-2064268
1781252165572826500,-88479,-102669,-64841,866,-98664,-23409,-25887,-131769,1858337,7304077,4460301,-4889903,-3315782,-6819080,7998184,-3135816
1781252165572826500,-83847,-98471,-49738,31195,-81146,12690,12037,-90005,1335983,-7887402,4435600,-4652222,-4811106,7689980,5696156,-6074808
1781252165572826500,-84583,-100104,-40290,57132,-70780,42785,43826,-52487,892066,-8045074,2933147,-4531499,-6383622,5693661,5858973,-6709126
1781252165572826500,-86106,-101916,-36352,69356,-65555,57774,59759,-23721,561647,-7927757,3925869,-2739475,-5910736,4071531,8213677,-5237152
1781252165572826500,-83518,-97958,-35781,63683,-61576,54009,55967,-4996,359254,-7668108,5110904,-3356924,-7248868,2879477,-6279586,-5715720
1781252165572826500,-74311,-85510,-36516,40125,-56091,32071,33128,3550,276233,-7401277,6276194,-6062842,6780691,3988028,-6089552,-7908332
1781252165572826500,-58750,-65022,-37333,3081,-48040,-3193,-3779,3697,284828,-7239391,-7676618,8230172,4867676,5148069,-5937784,7107336
1781252165572826500,-39300,-39753,-37198,-39902,-37548,-43953,-46362,-1881,345348,7647254,-7394151,8018030,3779467,6217815,-4006578,5749136
1781252165572826500,-19690,-14381,-35895,-79469,-26042,-80879,-85046,-9461,416024,5864462,7344385,-6882339,5264253,-7832959,-2517803,6605058
1781252165572826500,-1233,8386,-29996,-104923,-11623,-103404,-107540,-13841,463124,4241520,5235487,-5081890,6925434,-7602506,-3390204,7404222
1781252165572826500,14195,25940,-18241,-109333,5673,-104782,-106491,-11329,465040,2826116,3227553,-3418421,-8292065,-7752364,-6298542,6152318
1781252165572826500,20087,31619,-7849,-95929,17631,-88838,-87391,-5064,411220,1641904,1494870,-3839054,-7062950,-8228113,-7085569,6838354
1781252165572826500,15483,24721,-1611,-69256,21417,-60560,-56160,3318,309926,688357,2055397,-4226446,-8178266,5977901,-5929080,7297976
1781252165572826500,326,6085,-3525,-38914,13904,-29740,-24013,9613,180141,-66163,4680135,-2724518,7292256,3628895,-4963144,5662958
1781252165572826500,-19551,-17360,-11695,-12739,-1193,-4174,1107,12684,49907,1202968,5281840,-3417854,5894939,3545055,-4190196,4167128
1781252165572826500,-32151,-32663,-16472,6079,-11581,13531,18731,15276,-50002,2254246,4069604,-6049556,4546461,5529533,-3600293,4789692
1781252165579403900,-31725,-32956,-15735,11352,-13023,17546,22738,16663,-101626,1122628,3162368,8364935,5261747,7407823,-3170700,5416212
1781252165579403900,-16869,-16183,-10459,-2180,-5358,3001,7655,14652,-101321,-46792,2509971,8212410,5960086,7245899,-2865830,4159764
1781252165579403900,12663,17983,-433,-34095,11859,-29203,-25977,9564,-57623,-1202294,2029477,-6773943,6656144,5301540,-4515021,5051014
1781252165579403900,52929,65286,12199,-80925,35663,-75614,-74739,1528,8639,-2273853,3499507,-5239376,7329488,3754195,-5884483,7767556
1781252165579403900,555402,627063,526268,342390,714225,524572,524432,991068,2373108,-830763,7019057,-3533731,-8268215,5010381,-4221742,-2703468
1781252165579403900,37753,54378,-73998,-294721,-58828,-327111,-332644,-246658,3459925,1359367,-8061541,-3141097,-6641631,7064723,-4258723,-2044024
1781252165579403900,93793,119063,-39339,-311587,-7088,-334637,-342796,-208869,2834449,3805627,-6489341,-2385321,-4786654,7576653,-3238918,-3296682
1781252165579403900,135325,166560,-8742,-308396,35854,-322269,-332447,-166366,2143903,5912060,-7473357,-1775868,-5384533,7965518,-4104433,-4786708
1781252165579403900,156345,189645,14020,-283579,64107,-289909,-301202,-123934,1464433,7722757,8114076,-3104976,-8126560,8213070,-6599727,-4444378
1781252165579403900,155240,186375,27569,-238419,75445,-239780,-250852,-85160,872482,7431781,-7929015,-4119678,6054657,8331190,8221299,-4257824
1781252165579403900,133064,158219,30934,-178628,69283,-178216,-187689,-54345,428878,5422572,7674595,-2877798,3767324,8353570,6793410,-5970222
1781252165579403900,94914,111149,25159,-111784,48401,-112724,-119589,-33566,169437,5848456,5031237,-1571178,1922122,6449357,7704781,-7287738
1781252165579403900,47252,53189,11971,-47268,17040,-52112,-55886,-24235,97961,-8314941,5074710,-2185225,2476915,6720372,-8114976,-8113338
1781252165579403900,-4514,-8489,-9117,4494,-22584,-5930,-7812,-27466,185713,-5768108,5640642,-4539329,5144493,-7858610,7626318,6464966
1781252165579403900,-52365,-64451,-33929,37845,-63552,21326,19853,-40854,382169,-3438066,4710014,-6540374,5794381,-5938821,-8250058,5003630
1781252165579403900,-85256,-102723,-52579,54723,-93295,33098,31917,-56642,627274,-3336543,6134079,-6376411,6493903,-4361773,-5765149,6049516
1781252165579403900,-100528,-120037,-63161,55169,-108720,30469,29190,-71592,855153,-3384145,-7370752,-6314265,-7714452,-5038681,-3927370,7240396
1781252165579403900,-97431,-115857,-64103,43215,-108098,18027,16221,-81707,1011818,-3598882,-6541220,-8339467,-5507239,-5781616,-4624691,8337674
1781252165579403900,-78604,-93453,-55277,24418,-92333,1416,-928,-84650,1063002,-5847825,-6159210,6452693,-3726588,-6519408,-7472832,-7631532
1781252165579403900,-49615,-59359,-39206,4380,-65769,-14242,-17164,-79686,998179,-6037532,-6247131,6421030,-4264069,-7183205,-8237921,-7231008
1781252165579403900,-17920,-22044,-20391,-12981,-35067,-25754,-29503,-68623,829556,-6271595,-6725185,8096205,-4908001,-5840841,-7024257,-5388850
1781252165579403900,11753,12690,-544,-22879,-4030,-29301,-33542,-52047,589992,8376423,-5557040,7462950,-5567510,-6513044,-7783858,-6102070
1781252165579403900,34747,39365,17264,-24315,22619,-24741,-28997,-32828,320734,6557574,-6602673,6750072,-8047740,7871342,6591857,-7088462
1781252165579403900,48689,55336,30823,-18071,41904,-13671,-17533,-13294,63431,6969893,-7513820,6079496,6650396,5968773,6637382,-8151806
1781252165579403900,54067,61106,40037,-6428,53774,1286,-1486,4634,-148242,7431063,-6234095,5561076,5001887,6464188,6949683,7672866
1781252165579403900,55650,61798,48551,9536,62852,19200,18948,22035,-293478,5997262,-6722662,5270948,3746507,-7752713,7426483,-7926450
1781252165579403900,54346,59089,54648,24000,68353,34446,37256,36385,-372377,6659729,-6824050,3357488,2793410,-7294570,7943913,-6730072
1781252165579403900,49880,53485,54932,30693,67898,41151,45841,45293,-400890,7211401,-4717949,3851530,2026500,8009368,6510173,-5548430
1781252165597026000,49993,53107,57369,32581,70756,42959,50041,53213,-397926,5722087,-2711445,6402328,1334895,-8167428,5225751,-4442972
1781252165597026000,46111,50217,50365,21056,65237,31496,37718,53745,-396868,4339292,-2871118,6814811,2512727,-5801781,5954659,-3486000
1781252165597026000,525197,581710,569442,501195,739797,687144,700400,1069091,1902773,5473985,-2659815,7580647,5805851,-3309739,-7804441,-1960922
1781252165597026000,-66538,-69813,-86993,-130755,-100372,-158609,-158870,-183719,2889441,7263621,-1872306,7114841,7147643,-2597303,-6560944,-4248802
1781252165597026000,-38260,-37285,-61973,-120142,-64156,-138481,-138248,-135844,2211112,7376283,-922558,5165361,-8145530,-3488263,-5071667,-5445818
1781252165597026000,-9482,-4786,-33717,-101932,-25402,-110347,-108777,-85372,1513432,5476574,-2292867,5221575,-7112225,-4463698,-5892476,-6439172
1781252165597026000,5141,12638,-18823,-86138,-3226,-86190,-85804,-46436,880811,5680149,-3693252,5194445,-6328761,-3519897,-6748350,7750064
1781252165597026000,5781,14577,-15899,-71888,2797,-66227,-68307,-21611,397758,5906262,-4935450,3265980,-7459506,-4610872,-7500127,7683828
1781252165597026000,-2850,5338,-19291,-57277,-1642,-48964,-52718,-10115,122847,6186738,-7729232,1684408,6751318,-7395406,6846495,-6897532
1781252165597026000,-18152,-12057,-27822,-44703,-14576,-36827,-41341,-11877,72185,-8368682,6992534,532762,5052719,-7767234,4948480,-6561900
1781252165597026000,-36500,-33389,-39750,-37153,-33056,-32352,-36832,-25375,219713,-6394973,7603555,-166559,6113482,-7884417,5449865,-6037498
1781252165597026000,-53075,-52913,-52383,-36492,-52453,-36367,-40342,-46359,503886,-6592645,-6274865,1420635,-7294499,-7826284,6072078,-5422070
1781252165597026000,-63712,-65570,-63283,-43903,-68722,-48983,-52511,-70266,840054,8102671,-3478117,4890068,-5969179,-5817273,6634508,-6702820
1781252165597026000,-64636,-66963,-69253,-58283,-77168,-67794,-71052,-91197,1139195,8236295,-1051214,6022026,-6725355,-4135481,-7924485,-5929098
1781252165597026000,-54190,-55123,-68314,-77476,-75006,-89429,-92821,-104570,1324296,-8314390,-1087980,4961424,-7616383,-2875533,-6335313,-3471762
1781252165597026000,-32707,-30575,-59779,-97471,-61610,-109539,-113665,-106972,1346155,-8010397,-1532516,3844205,-6876095,-2052008,-7296809,-1609694
1781252165597026000,-3881,2501,-45075,-115068,-39340,-124883,-130060,-98222,1190476,-7657528,-2374857,4585895,-4833649,-1601967,8228597,-424928
1781252165597026000,28956,39914,-24853,-125352,-10335,-131012,-137120,-78582,881343,-7288827,-3530489,6939493,-3628537,-1399725,-8002044,-1786536
1781252165597026000,59873,74745,-2594,-125854,20026,-126398,-133094,-51812,471605,-5062032,-4861651,-8016831,-3135265,-1289949,-7599077,-3421866
1781252165597026000,83024,100374,17576,-115608,45793,-111120,-118187,-22493,32018,-5063979,-6204606,8214329,-3117921,-1122017,-7146435,-3270320
1781252165597026000,93915,111495,31963,-95531,61837,-87321,-94291,3966,-364429,-5157420,-7402939,7577535,-3286255,-785347,-6481271,-3329486
1781252165598359500,91258,106715,39323,-66765,66209,-56859,-63160,24493,-655996,-5312111,-8334688,7003905,-3357941,-230709,-5503881,-3468058
1781252165600099000,75205,86348,38844,-32661,58400,-23462,-28372,36227,-806006,-7369168,7842722,4740447,-3119504,518302,-6076440,-5446880
1781252165600099000,49264,54438,32115,3705,40912,9958,7103,39347,-806894,7663378,5701341,4919997,-2465040,-501224,-7964197,-6995960
1781252165600099000,17234,15630,20316,37977,16454,39746,39018,34453,-681634,6276841,6021211,7276747,-1413966,-3113655,-7224129,-6163532
1781252165600099000,-19124,-27129,1768,63935,-15107,60356,60356,21650,-478009,7114853,-8352126,7671670,-1975292,-5253777,-4327703,-5132702
1781252165600099000,-52864,-66267,-17959,81009,-46222,72239,72208,5425,-251006,7940138,-8074009,8141911,-2175259,-5151842,-3594957,-3997264
1781252165600099000,-75545,-92822,-30775,92493,-66941,79806,80178,-7049,-52034,6760264,6996043,-6304658,-2220020,-5117135,-3112748,-4737022
1781252165600766700,-86118,-105271,-36250,97678,-76244,82990,83821,-14196,76072,5656834,5420374,-6251288,-4201839,-5296716,-3023414,-7141564
1781252165600766700,-84624,-103636,-34240,97892,-73849,83307,84427,-14648,112519,6472841,5866009,-6366978,-6112013,-3888883,-3373388,7707282
1781252165600766700,-72642,-89972,-25022,95142,-60710,82560,84238,-8674,60991,-7893130,6176378,-6624927,-6142962,-4943686,-4109917,8113882
1781252165600766700,-54129,-68719,-11440,90832,-40880,81630,83724,1912,-54181,-6095532,4477361,-6964153,-4608478,-8095078,-6973905,-6280356
1781252165600766700,-34777,-46281,1958,84927,-20489,79599,81707,13073,-195254,-6786190,2981076,-7306388,-5543054,5797357,-7134260,1441062
1781252165600766700,-18533,-27243,13069,78606,-3084,76963,78945,22258,-318247,-7694156,1759079,-7574377,-6685553,5260315,-6579040,-5768146
1781252165600766700,-5900,-12573,21778,74031,10646,74876,77050,28884,-385780,8136239,2724491,-5832507,-5967022,5059274,-7183888,-7835960
1781252165600766700,90,-5398,25744,69739,17430,71794,74407,30356,-376994,5445684,3683219,-4238627,-5370179,5218432,7415637,-7870404
1781252165600766700,2737,-2606,28651,67993,21457,69993,74109,29203,-287881,5205893,4553955,-2830123,-4759723,7573942,5864837,-6124344
1781252165600766700,1866,-4077,29294,66480,21891,67440,73609,25136,-138600,5329314,5257558,-3519607,-4040041,-6938691,6787832,-6658922
1781252165600766700,-3371,-9948,24957,61958,16620,61228,68569,17945,33746,3896786,3857415,-4150213,-3175271,-4936819,-7021046,7585440
1781252165600766700,-9434,-16361,18889,54937,9778,52673,60687,10700,187972,2988057,4384077,-2826958,-4071561,-3341954,-6277180,5281958
1781252165600766700,-14327,-21022,12258,45672,3366,42513,50349,5734,284154,2487283,6568873,-1728434,-6508986,-4118228,-7673899,5159882
1781252165600766700,-16236,-21953,7137,35347,-162,32391,39469,4906,294471,4112305,8242393,-888599,-6522267,-5098294,7644265,6951124
1781252165600766700,-13806,-17873,5370,26154,1260,24716,30743,9922,209849,7391814,7550330,-2185219,-4522560,-6194120,6124448,6572662
1781252165600766700,-3760,-5942,12103,22731,12712,24189,30644,23162,44093,-6796076,4884700,-5279297,-2864116,7609301,6466210,4287512
1781252165600766700,9769,9579,23136,23719,29138,28967,36392,41110,-175548,-6878600,2586056,-7900627,-1712342,5056908,6563851,4189952
1781252165600766700,14157,16108,23799,19928,34019,28700,34221,52738,-415507,-7427433,2698197,-8078797,-1131420,3048997,6478880,4173964
1781252165600766700,13177,16786,19697,16188,32623,27712,30459,59785,-625157,-6380851,5007806,-7965579,-1066589,3516367,8183033,4266666
1781252165600766700,9136,13542,14510,14558,28379,27779,28425,62475,-761065,-5692989,7306110,7272454,-3239490,4249401,-7182931,6370324
1781252165600766700,2453,6757,8271,14254,21307,27775,27142,59893,-796055,-5170034,7613005,8048409,-5247835,5122619,-6007502,6445810
1781252165600766700,-6290,-2912,679,13362,11398,25667,24516,51227,-722902,-6510510,6133160,-7892454,-6830347,7873161,-5008640,4777154
1781252165625185200,-15841,-13717,-8311,10053,-757,19874,18428,37161,-555133,-7405889,6872257,-7121557,-7798940,8316481,-4029239,8013734
1781252165625185200,-6114910,457532,-3279594,-1420388,4322884,600730,-5971454,1470173,-7378135,-3588562,8078017,-7006669,1805981,-4937953,-2811211,8334840
1781252165625185200,1382045,-138885,732105,323630,-1025030,-139402,1380547,-334313,1565353,-4744142,6303986,-4019201,-2242296,7703376,-4696060,8147044
1781252165625185200,1123385,-118204,588742,249722,-846599,-130766,1109739,-289607,1497595,-2932885,7150566,-6190583,-549218,5716774,-7512759,-7861194
1781252165625185200,865457,-91051,445914,172430,-660332,-123050,832848,-240210,1363175,-1280865,-7065602,-8263638,-841055,5784875,-7924766,-7190836
1781252165625185200,638382,-59247,321045,101606,-485633,-115917,582318,-190557,1172106,38265,-5020756,6664781,-1127466,5825691,-6243215,-6698890
1781252165625185200,464545,-26643,226543,44955,-340477,-109745,383801,-146044,944414,-965861,-3532816,5130274,343647,5872009,-4742121,-4570054
1781252165625185200,354807,1991,167534,6852,-238185,-104956,251768,-111169,706257,-2139830,-4448414,3946124,-576553,7818061,-3541225,-3017184
1781252165625185200,307784,22337,142880,-11584,-183836,-101637,188578,-88990,485259,-1518465,-5495025,4965450,-3647581,-7295694,-4579209,-2061024
1781252165625185200,312914,33420,147668,-10320,-171449,-97291,187269,-78053,306765,-1153815,-4638009,7809782,-6630505,-5955094,-7541774,-3524118
1781252165625185200,350425,34848,171181,6404,-189715,-90528,229906,-76316,186823,-932081,-3923903,-6610452,7383006,-6826616,6629763,-5107666
1781252165625185200,396630,27291,200252,32414,-223640,-80372,292856,-80030,130022,-2600338,-5164981,-4865339,6835628,7193010,4515314,-6625984
1781252165625185200,429126,12558,222217,60529,-257856,-66837,352006,-85574,129883,-3862146,-8011878,-5642489,8286260,4809739,4849934,6984398
1781252165625185200,429772,-8074,225151,82896,-282109,-52011,385196,-90617,169636,-4620799,-8359333,-6695978,7688866,2893086,5461732,4465978
1781252165625185200,389652,-32899,203150,93610,-289933,-38358,379332,-94004,227829,-4875349,-6498434,-7853214,5316393,3353253,6258492,2671920
1781252165625185200,316970,-53262,164709,96090,-271192,-21852,340118,-89815,288142,-4714762,-6581533,7853766,3366414,3985732,7122757,3454084
1781252165625185200,222161,-67189,115160,90477,-229852,-4526,274241,-78927,333175,-4309362,8327697,-7861500,1862749,4691078,6051029,6390322
1781252165625185200,121396,-73319,63168,79532,-174034,12114,194991,-62962,352852,-3868908,6776895,-6732205,2654426,5376005,6989844,7220210
1781252165625185200,32268,-71265,18716,67073,-113597,26928,118892,-44478,345228,-5475710,5512506,-7394789,5363096,4092843,-7197068,6035226
1781252165625185200,-31630,-62818,-11591,56242,-59676,38425,59373,-26728,315294,-7108966,4500006,7208876,5802372,2985833,-5207615,6792552
1781252165625185200,-63844,-51500,-25532,48250,-21946,44560,23796,-13647,272563,-6951478,3704573,7548170,4151491,3954581,-3861627,-7598906
1781252165625185200,-63299,-38835,-22134,45055,-2706,46390,15653,-5814,230820,-7187474,3093571,-6749233,4451698,4833790,-4985354,-7646616
1781252165632280100,-37793,-27600,-5829,45771,-976,44238,29924,-3966,201780,7108764,2634649,-4478655,6455065,5598124,-8144309,-7921574
1781252165632280100,522727,552179,596086,583143,721355,748215,787974,1038605,2541581,7073157,4681487,-2139193,-8174187,-8075695,8290947,-5646150
1781252165632280100,-84184,-144092,-98603,-73120,-193510,-130555,-88123,-252164,3542322,5770889,7249615,-1403152,7146806,8192299,-8003253,-5390376
1781252165632280100,-41793,-115837,-63203,-51186,-169080,-105595,-45089,-210830,2956457,5199410,8000520,-2521470,4542197,8295506,8178820,-6221538
1781252165632280100,-24668,-88901,-41949,-34547,-131544,-78908,-24524,-165660,2365489,6683020,6538791,-3868251,4232500,8313967,7937776,8018954
1781252165632280100,-37967,-64723,-38850,-26419,-80865,-53292,-33196,-119889,1826663,8121149,6964669,-3414029,6039891,8291138,8039908,6024864
1781252165632280100,-80967,-46050,-55572,-29739,-23333,-33199,-72731,-78925,1383144,7635925,-7710669,-3175184,5920444,8258413,-8361373,6475042
1781252165632280100,-143459,-32944,-86671,-42754,34863,-20168,-134319,-45429,1060603,7389263,-6070161,-3031372,4116409,8234191,-5942313,-7781762
1781252165632280100,-210348,-24769,-123241,-61617,86162,-14659,-203433,-21476,862307,-7528924,-6746468,-4750553,4644198,8223240,-5660757,-5538464
1781252165632280100,-264600,-20006,-154757,-80756,123564,-15208,-262839,-7175,771290,-7674671,-7501522,-7949557,7157919,8222621,-5471887,-3757914
1781252165632280100,-288446,-14114,-167618,-91850,146119,-16896,-292772,712,757715,-7746759,-6347591,8267904,7488632,8227596,-5419227,-2544532
1781252165632280100,-274359,-7104,-157661,-91779,149470,-18363,-284607,3213,781146,-7799820,-7250900,8169663,7695129,8236907,-5508653,-1897930
1781252165632280100,-225519,-2283,-128967,-82471,128932,-21486,-241289,-636,800175,-7884223,-7991913,-8373720,7749751,-6644246,-5713477,-1713946
1781252165632280100,-153036,-3465,-90640,-68334,83294,-28504,-174001,-11364,782937,-6156134,8274775,-6101441,7666916,-6904662,-7862113,-1805260
1781252165632280100,-70677,-11154,-50558,-52959,19667,-39101,-96010,-27149,714485,-4803689,8028090,-6021438,7497194,7756873,-7842581,-1943098
1781252165632280100,13593,-16644,-6942,-32897,-39937,-44478,-12607,-38576,603133,-3826540,8045100,-7989464,5439476,6029562,-7765468,-3780000
1781252165632280100,83960,-18642,31839,-12602,-84117,-44138,60016,-43487,463835,-3176684,6415565,-7986697,5629147,6641947,-7647627,-4968576
1781252165632280100,126690,-17023,57332,2869,-105228,-39244,106375,-41206,318497,-2765585,7140602,-8140603,7848514,7427065,-5653821,-3531192
1781252165632280100,132016,-13180,62434,8262,-101276,-33021,114529,-33722,188772,-4362138,7991854,6496628,8033180,6431246,-5900158,-3569118
1781252165632280100,99329,-6813,46226,2034,-72193,-26909,82045,-21831,92689,-5678633,-7919650,4635783,8300040,5739824,-8165625,-3099330
1781252165632280100,34271,1107,10854,-16029,-23470,-23222,13033,-8120,37518,-6610245,-5266125,5049470,-8158415,7152536,6499213,-476456
1781252165632280100,-51228,10010,-37543,-43286,36858,-22859,-81060,5543,19300,7771631,-3086896,5623025,-7834953,-6514610,4578596,1846090
1781252165632280100,-142225,18992,-90453,-75468,98863,-26189,-184692,17207,23126,6042877,-1457831,6327569,-5685237,-4024015,4751004,3584718
1781252165632280100,-221739,28844,-137201,-105962,154816,-30962,-279108,27244,29099,6769071,-383815,-7800008,-5816438,-4138752,4848304,4560280
1781252165632280100,-277467,38340,-170536,-130041,196548,-36127,-349699,34805,14424,7605010,192125,-5475288,-7982628,-6563833,4847462,4726992
1781252165632280100,-301541,46982,-185402,-143304,219574,-39696,-386188,40365,-38361,8327284,374001,-3596012,6803494,7774522,4756945,2302676
1781252165632280100,-292867,53875,-180629,-143860,222560,-40274,-385008,44173,-137433,-6143620,-1587968,-4111203,6940664,5502061,4614951,-322708
1781252165632280100,-255450,59027,-157736,-131058,208674,-36044,-348290,47755,-277790,-6409832,-5261578,-6724821,-7821352,3550497,6359520,-2845824
1781252165661292000,-200435,60294,-123950,-108568,180982,-28038,-286083,1052326,-1652862,6785746,8282396,1802696,3157225,-3768409,6153063,-4225812
1781252165661292000,-3549112,-3392701,-3284190,-4234638,-3804577,-3958031,-5670445,824842,1979591,7849411,-8308897,-7654939,-6296809,4737411,-6593513,-4095386
1781252165661292000,707482,853110,693300,915233,1028683,911989,1128978,-366679,2831089,8328017,-7196994,8087717,-5546686,4697287,-6179480,-6221946
1781252165661292000,598523,693241,579047,763470,824443,754911,954347,-284117,2080693,-7572719,-5532414,5847566,-6182177,5389929,-5114433,-6779566
1781252165661292000,468111,529390,452148,603980,626799,594767,758150,-205836,1402279,-6782033,-4121683,5899676,8176160,6004438,-5954298,-6853350
1781252165661292000,332425,379031,327296,454642,455430,448640,563947,-141630,876876,-7846062,-4960839,7974754,6227497,6484755,-6492732,8268742
1781252165661292000,209737,257173,219426,331891,324593,331343,395752,-97712,556711,8261895,-5899978,7973620,4814393,-8088070,-6707124,6998838
1781252165661292000,116214,173685,141180,247359,241433,252236,273384,-76168,454803,-6872556,-6854440,6124648,3923961,-6321198,8261246,5942304
1781252165661292000,61540,130540,98200,204551,203240,212851,206570,-75337,542896,-7025217,-7701607,6471942,3470104,-6841603,-7955079,6825476
1781252165661292000,46233,121125,88074,197971,198279,206190,192722,-91352,757721,-6940218,-8312246,6848278,3311015,-7387241,-5428883,-7536428
1781252165661292000,66868,137262,106372,219407,214865,223645,223570,-114411,1019539,-4865023,8196559,7211594,3281416,-7817326,-5156564,-7708624
1781252165661292000,111689,165743,142100,254464,237557,251557,281132,-136119,1244016,-4990520,8320624,7522936,3221177,-8024847,-5115091,-8274984
1781252165661292000,165302,193152,181834,288096,252877,276422,343878,-148706,1361403,-5268816,6940030,5875811,4883321,-6080770,-5344267,-7202508
1781252165661292000,213104,209887,214502,308505,253301,288504,392894,-146496,1330760,-5722143,8020349,6309684,6019987,-4179599,-5817511,-6473220
1781252165661292000,244262,211572,233260,309427,238350,283561,415617,-126118,1146102,-8193438,-7523359,-8240305,6604442,-4296897,-4574141,-5918100
1781252165661292000,248486,194160,229935,285813,206498,258069,401087,-92158,831439,8228454,-8234131,-6437369,-8195560,-6234553,-3676559,-5382884
1781252165661292000,223552,160030,203310,239991,162291,214970,348968,-50641,438657,-6964061,-7043237,-5105861,-6861760,-7873993,-3019949,-4758108
1781252165661292000,175079,116267,159222,180102,114718,161999,269166,-8565,34145,-5552154,-6271928,-6116047,-6010111,-7377642,-4359038,-5878288
1781252165661292000,113833,71739,106934,117014,72733,108633,177291,27576,-316468,-6166580,-7919085,-7226712,-7317306,-6987359,-5399504,8312046
1781252165661292000,53041,34695,57007,61609,42929,63617,90985,52393,-562248,8300687,-7949351,-6433959,8372982,8106419,-4159962,6382536
1781252165661292000,5721,11222,19141,22640,28020,33335,26078,63602,-676763,-8379478,8337563,-5804021,-7210722,6487676,-4678807,6889098
1781252165661292000,-16611,5238,2647,6082,29404,21706,-4195,62934,-660594,-8037057,7513955,-5277023,-5837781,6846676,-6742144,7483894
1781252165661818400,-9087,15437,10082,11895,42194,27387,3941,54330,-541839,-7542994,6540156,-6671113,-4337456,7053401,-6386732,6076310
1781252165661818400,21624,31752,32643,30371,52082,40088,39512,38808,-371419,-5153038,3740138,7144149,-2817777,7134301,-4028782,4690382
1781252165661818400,65722,44620,60336,50953,47282,49691,87875,20273,-205157,-3185312,1477609,6734625,-1408185,-7756821,-2030149,5163128
1781252165661818400,108830,43548,80213,61191,17226,45268,129777,1095,-93776,-3655983,-93805,-8170025,-226750,-8057836,-2445752,5336630
1781252165661818400,145479,29497,91966,58915,-31127,27364,158859,-9975,-63623,-4430221,-931783,-6271926,-1225440,6574145,-3174214,3388972
1781252165661818400,168421,3566,93215,42146,-90544,-3131,167777,-9335,-121215,-3562515,766496,-6359879,-2239965,6722047,-2286009,3497730
1781252165661818400,171884,-31429,81397,11184,-153287,-43573,151291,2507,-251311,-3120242,2650134,-8237370,-3200324,7052515,-1847971,5533850
1781252165661818400,152647,-71564,55465,-31518,-211401,-89998,108349,20618,-421146,-4867298,2588777,-7886047,-4025060,5653361,-1736586,5541032
1781252165661818400,114184,-109266,19687,-78624,-254303,-134493,45910,40326,-586018,-8348288,2536129,-5610378,-4639359,6510026,-3665171,5735024
1781252165661818400,63405,-137299,-20009,-122037,-274081,-169439,-25345,55791,-702358,5576600,2355780,-5517783,-4996104,7370693,-5286981,8025638
1781252165661818400,9874,-149189,-56122,-153302,-265679,-187930,-92378,62807,-736445,5375606,1967240,-7364397,-3212231,8103284,-6443494,8319698
1781252165661818400,-36802,-141713,-82262,-166617,-229181,-186309,-143379,58528,-673394,5671654,1353844,7821759,-1510412,-8177631,-7072367,-8101330
1781252165661818400,-68312,-114785,-93833,-159249,-169144,-164080,-169600,43604,-520042,4471979,2435393,-8368974,-1875593,-7978471,-5338181,-5905980
1781252165661818400,-79216,-71610,-87541,-131564,-93001,-123938,-166472,21319,-302392,3785676,3114722,-7782504,-4102506,-8078173,-3553922,-6040288
1781252165661818400,-70632,-20301,-67134,-90329,-14188,-73933,-138216,-4696,-63509,5317787,3469747,-7261244,-6059398,6479537,-1933586,-8318242
1781252165661818400,-46286,30616,-37192,-43283,55603,-22593,-92436,-28311,149509,-8203330,3608632,-6869687,-5892715,6299963,-667294,6206536
1781252165661818400,-13887,71709,-4988,0,105422,20564,-40926,-44640,293785,-5602984,1767492,8239967,-3956800,6127486,-1758274,4047090
1781252165661818400,17784,95784,22138,31147,128178,48124,4019,-49606,340729,-3795894,223564,6665900,-4396546,4169134,-4937529,3941168
1781252165661818400,39645,97884,37416,43636,120811,55012,31280,-42133,280950,-4659429,940385,7087341,-5102446,2664415,-6062779,5671216
1781252165661818400,43754,75717,34711,33550,83373,38773,31857,-24306,125786,-7762976,1746811,-7557471,-4155435,3536565,-5286119,7109658
1781252165661818400,24636,29878,9930,-42,18897,-282,717,-1843,-95511,7971414,682199,-5906556,-5522726,4572286,-6559886,6422916
1781252165661818400,-10723,-27899,-27226,-46611,-55403,-50587,-50849,24926,-334793,-7813593,-163699,-4738791,-6922107,5648085,-7630322,3999804
1781252165661818400,-56332,-88408,-70205,-97606,-127450,-103185,-113027,50992,-544378,8096821,-841428,-5866681,-6305475,-8271101,-6519965,4023692
1781252165661818400,-104551,-142954,-112365,-144292,-187559,-149641,-174837,71378,-683935,7607473,-1400118,7910361,-5701615,-5928930,-7236119,6296472
1781252165661818400,-146287,-183588,-145742,-178362,-227526,-182290,-224029,82785,-727204,7518563,3643,7269137,-5029889,-4204098,7268328,6741132
1781252165661818400,-174270,-205643,-165198,-194399,-244408,-196745,-251862,83691,-667545,7764450,1180538,6967001,-4236718,-4982346,5589995,7430898
1781252165661818400,-185181,-209248,-169529,-191882,-240792,-193401,-255233,73336,-519397,-6688738,245712,5163055,-3306164,-7878863,6328809,-6632804
1781252165661818400,-176655,-195239,-157511,-171265,-219420,-173328,-232726,55369,-311735,-4629651,-571244,4003896,-4136554,6241820,7182011,-4203374
1781252165701530400,-151448,-168764,-132112,-137571,-186994,-141810,-189394,33202,-84429,-3013423,716715,5292686,-6478541,5903729,7960911,-2216290
1781252165701530400,-113326,-134186,-97148,-96381,-149110,-103979,-132245,12639,121617,-1935538,2016076,6696226,-8202681,7710039,-6394239,-772932
1781252165701530400,447252,467680,514402,475395,615152,639096,655637,1040632,2617547,-863329,3848697,-8311939,-6914371,-6699171,-4023310,877678
1781252165701530400,-150420,-199598,-159175,-144167,-252940,-199817,-188356,-252706,3683268,-3266732,4560363,-6034076,-6833968,-7612403,-3648378,270412
1781252165701530400,-95953,-151679,-106923,-96683,-199205,-147059,-117046,-206961,3060492,-6815469,5895542,-5768797,-6090710,7252079,-3145834,250782
1781252165701530400,-55853,-114277,-67416,-62852,-155903,-105828,-66172,-154330,2354834,7013464,7145602,-7887124,-5597330,5731458,-4978771,-11692
1781252165701530400,-32955,-88539,-42841,-43629,-123528,-77728,-38316,-102075,1661622,4873715,8234803,-8252523,-5457634,4571178,8151459,-345480
1781252165701530400,-26403,-73401,-32519,-37016,-100675,-61725,-31499,-57175,1070195,5498639,-5809746,7904269,-3823591,5581679,7001583,-594134
1781252165701530400,-32419,-66193,-33369,-39318,-84930,-55223,-39979,-25465,646371,-8258994,-5544359,7175657,-2831530,6495609,8249258,-2519146
1781252165701530400,-44764,-63274,-40537,-45514,-73797,-54257,-55605,-9662,421135,-5246221,-5607993,8363581,-2402097,7201456,7874938,-5756176
1781252165701530400,-53468,-58093,-44517,-47941,-60588,-52015,-65653,-7346,388922,-4411241,-4063292,7529521,-2385469,-7260870,6086748,-8099770
1781252165701530400,-51935,-47429,-40121,-42457,-43229,-44728,-62365,-14693,507558,-5706573,-2993358,5024235,-2595408,-7394790,4942281,-7714908
1781252165701530400,-40713,-34195,-29869,-31263,-27704,-34867,-47268,-30180,707006,-7100285,-2303006,3078795,-2848514,7132361,6162885,-5057484
1781252165701530400,-22533,-22321,-17695,-18159,-19896,-25873,-24751,-50456,909678,8141000,-3733179,3588206,-4873737,6952075,-7540021,-2556668
1781252165701530400,-2823,-16869,-9329,-8545,-25805,-22568,-2520,-72773,1046344,6471542,-6826072,4304862,-8277664,6822719,-5030867,-473622
1781252165701530400,22259,-12127,2659,1676,-35488,-19240,24407,-86374,1078995,6612454,7547622,3202266,5946666,4950694,-5147778,1027450
1781252165701530400,49439,-8058,17458,10970,-45993,-16075,52286,-87757,993847,8353570,5953781,4194854,4215856,3555783,-5755853,19812
1781252165701530400,73299,-5694,31359,16766,-56311,-14576,74807,-77337,806156,7718078,5165060,5023086,3163509,4529103,-4858555,-1248756
1781252165701530400,87808,-6885,39453,16147,-66467,-16844,85444,-59615,554581,6971510,5056848,3730507,4446847,7497630,-6319286,-2598222
1781252165701530400,91249,-9834,41007,10183,-73136,-21424,83061,-38423,293576,6268868,5414237,4367066,5642944,8248143,-7756153,-3836794
1781252165701530400,82562,-13594,35199,-171,-74511,-27628,67708,-19837,76541,5743572,5972899,6709241,6512066,6909046,7847339,-2933148
1781252165701530400,64366,-15431,23918,-11556,-67966,-32607,43375,-7797,-54184,5486128,6471939,-8134401,-7978657,7464074,5231424,-3859770
1781252165701530400,40617,-13264,10069,-20798,-52110,-34006,15556,-5359,-78394,3652005,-8202427,-6546310,-8342047,-7161122,3422529,-4462280
1781252165701530400,17568,-4023,-1480,-23506,-25292,-28381,-8074,-11784,-592,2396325,-4930875,-5206362,5807167,-5585388,2401495,-2910444
1781252165701530400,-199,12706,-7767,-17966,10774,-14888,-22326,-25480,149831,3543842,-4607042,-5888377,5193511,-4547788,2013501,-1495840
1781252165701530400,-9036,36344,-6662,-3507,53306,6471,-23658,-42339,327218,4794678,-6878459,-6326696,4683787,-3930770,2008949,-384800
1781252165701530400,-8131,63936,1808,17824,97291,33108,-12184,-58370,479559,5965685,-7473645,-4574864,2573847,-3565687,3976980,-1579294
1781252165701530400,2326,92599,17018,43614,138537,62499,10318,-68369,562058,6906169,-6402070,-4703830,1138282,-5143984,5475524,-4825026
1781252165701530400,19101,118114,35964,69468,172005,90413,38847,-69453,545806,5647528,-7491352,-6522482,393622,-8199245,6299034,-7878846
1781252165701530400,37824,136617,54881,91141,193704,112858,67257,-59963,425265,6229153,8372698,-7950760,222318,6359626,6395268,6169690
1781252165701530400,53082,144522,69349,104207,200679,125841,88716,-41417,218480,6544863,-7128075,-7208317,2278646,5023420,3991173,5763560
1781252165701530400,58690,138235,73397,104560,189448,125505,95526,-18129,-37451,6658692,-7676316,-6597475,5984646,4467475,3376178,5585416
1781252165701530400,49510,115646,62164,89402,158259,109118,81998,3528,-294467,-8238182,6962931,-6258902,6995544,4468660,2696128,3767388
1781252165701530400,30865,84312,43008,65585,118269,83812,55873,23466,-496982,8230778,5346851,-4383999,7291831,6613106,345070,2478732
1781252165701530400,4751,47935,18078,36336,74448,52959,20767,37481,-604505,7968428,4174123,-3139468,6879570,-8358101,-1286478,1703764
1781252165701530400,-24998,11327,-9240,6262,32114,21095,-17695,43310,-595739,-7070026,3329237,-2456733,5913547,-7162468,-191091,3242704
1781252165701530400,-53244,-20743,-34223,-19729,-3368,-7015,-52582,40318,-472910,-7357040,2691224,-4052495,6539707,-4837066,1419070,4785264
1781252165701530400,-75609,-44819,-53374,-37978,-28989,-27717,-78425,29574,-261904,7368289,4039376,-7408060,5027303,-3543920,1462981,6147090
1781252165702803900,-89791,-59813,-65398,-47272,-44567,-39857,-92580,12748,-7394,5710145,7012164,6676902,1971529,-3147562,1847856,7174756
1781252165702803900,-92684,-63961,-67549,-45970,-48623,-41518,-91771,-5246,239163,6301290,7516538,4833219,1707376,-5251572,2315945,7771590
1781252165702803900,-84285,-58174,-59880,-35123,-42483,-33426,-76643,-20530,427291,-8008512,5872395,5747456,2226161,-7329368,2622666,7908644
1781252165702803900,-66674,-44753,-44396,-17385,-28947,-17844,-50562,-29539,518436,-7841283,6268265,-7785379,3482620,7763843,4464997,7626646
1781252165702803900,-42738,-26315,-23154,4199,-10288,2511,-17558,-29922,493949,-7898068,6693825,-4666954,5284127,6731583,7458433,-7876594
1781252165702803900,-13732,-3366,3798,28660,14136,27035,20394,-18837,359776,-8164466,5355966,-3884035,7334198,6454331,-7346942,7809694
1781252165702803900,14423,19467,30850,51176,39267,50947,55859,667,138962,6326261,6339251,-3522069,-5608023,6867427,-6277380,4781150
1781252165702803900,34515,36201,49899,65878,57618,68097,79733,22674,-131320,4305597,-7453467,-1825383,-2483017,-7134275,-5853167,4045538
1781252165702803900,599509,-5286599,4273359,2853228,-4587218,-4941569,7891511,-2947422,1982825,6594194,1829510,4141402,1836360,5832026,1300883,-1700854
1781252165702803900,-78889,1286612,-910270,-570252,1154479,1243797,-1712497,754638,2701310,4585921,-4159051,-2115232,304710,-6501619,-7225790,2781902
1781252165702803900,-60871,1058168,-736534,-458812,955549,1026450,-1390937,637259,1938959,5350565,-2380512,-4298236,564860,-7964639,-6482400,1139544
1781252165702803900,-42240,826554,-558515,-344707,755033,805354,-1062960,512639,1264760,6279244,-3202185,-6471182,-1761463,-7685569,-5276423,1940278
1781252165702803900,-10914,630284,-380088,-228847,591622,617305,-747902,404169,755245,7290008,-6316533,-6448647,-3647039,-5144140,6017649,-3764712
1781252165702803900,1842575,-2418877,-3614935,7064573,-1846287,1153553,474493,-6101631,-2426050,4976728,4128799,5698543,952585,-4465783,-3353451,6265566
1781252165702803900,-430334,997939,583166,-1780586,844444,165323,-606668,1691750,928691,-7000575,7118461,-4435928,-3731263,-4557413,-1660447,7856158
1781252165702803900,-348281,814112,473385,-1453794,683701,133272,-492944,1368547,824750,-6599939,7996322,-5552111,-5314004,-6081120,557923,-6835766
1781252165702803900,-263278,680112,328401,-1143521,566100,151120,-442454,1071911,828278,-8379596,6950743,-6091750,-6155031,-7342816,2297078,-7126750
1781252165702803900,-184299,593311,175908,-877709,488783,199921,-439192,826310,887358,6628913,6252314,-6150001,-6312834,-8108719,1495449,-7557282
1781252165702803900,-120792,542823,41275,-677300,441558,255632,-463036,645321,949006,4950193,7875943,-5894019,-4092688,6637410,281404,-7988712
1781252165702803900,-77023,515992,-53479,-549398,413960,298270,-490005,533346,973025,5317276,7796035,-3644182,-3806929,7376018,-1231406,6609570
1781252165702803900,-55321,497451,-97564,-490268,393281,311902,-501474,481731,935749,7487527,8126881,-1769265,-3567088,-8207099,-2851685,6827558
1781252165702803900,-53484,474825,-90668,-484551,369724,290034,-485102,473939,834839,-7484406,-7979992,-2308841,-1679932,8053422,-4352625,-7590662
1781252165702803900,-66482,439910,-43046,-510026,337307,235097,-437580,487757,686183,-6047422,7806452,-5011604,-2299670,7683185,-5524863,-5354426
1781252165702803900,-86081,391262,29020,-541211,296170,158699,-362815,502271,519160,-6814404,7180431,-5734644,-5139151,-7702934,-6222492,-5276350
1781252165702803900,-104514,331849,105214,-556221,249611,76260,-272106,499557,366246,7372386,6781237,-4619508,-7879361,-5056597,-6396473,-5318592
1781252165702803900,-116069,267848,165616,-540583,202534,3789,-180936,468827,254659,7137324,6453334,-5604861,8355541,-3458332,-6104158,-5550258
1781252165702803900,-117421,206870,196016,-489273,160526,-46084,-104281,407410,199493,-7714977,7925754,-8307865,-6877532,-4771896,-7374123,-6006366
1781252165702803900,-106323,157537,192328,-405120,130393,-64874,-50705,322652,201970,-7689850,-7874537,8206404,-7210655,-6616250,-8236556,-6673186
1781252165702803900,-84916,124019,157764,-299818,114495,-53067,-24099,226152,246870,7437845,-7482339,-6635406,7662447,-6752717,-7017766,7411558
1781252165702803900,-57080,107167,103392,-188907,111900,-17743,-21074,132899,308024,6238784,-7666802,-6626055,8233364,7927066,-6105898,4978212
1781252165702803900,-28652,102490,43565,-89294,117145,27725,-33459,55460,353882,5434264,6570992,-8385692,-7739629,6359077,-5693614,2953146
1781252165702803900,-7668,100073,-10174,-16437,118976,65617,-52953,659,354295,6797539,5901965,-7968889,-6878632,5569657,-3985727,3323244
1781252165702803900,-7778,81768,-57327,14280,96577,73186,-79234,-36432,284367,-6887393,7024304,-7643876,-6158141,5640554,-4998656,3955174
1781252165702803900,491516,609973,491820,539971,779876,753224,633356,987187,2495457,-3864017,-8350773,-7054139,-5158599,-7832291,-5829263,5585686
1781252165702803900,-116988,-87551,-149083,-93918,-107986,-122562,-188142,-258629,3341250,-4562898,6715582,-7784740,-5885381,-5603946,-8093405,7517344
1781252165702803900,-109899,-117726,-81521,-93604,-132601,-156693,-105980,-201472,2533504,-6908897,5918746,6707255,-6310958,-4648063,7318702,8307628
1781252165702803900,-103566,-160514,-5351,-88695,-167386,-202929,-8738,-151735,1729917,-7364538,5490716,4518388,-7110737,-3866508,6366476,7157852
1781252165702803900,-96034,-210829,61242,-70196,-208167,-249981,87164,-123060,1035782,-7926474,3575904,2564775,-8139380,-3491394,4112205,8072652
1781252165702803900,-87199,-262136,100607,-34803,-250041,-287083,162781,-124463,534615,8310120,2312774,972200,7574625,-3654166,2779445,-6042272
1781252165702803900,-75112,-303752,103985,17700,-283530,-302443,205362,-154636,275150,7897171,3512715,-172183,6682223,-2483846,2313157,-3867552
1781252165702803900,-59950,-327000,69441,81024,-301223,-289677,206967,-205994,259052,5797209,6741777,1035279,8009943,-2048965,4394711,-2238134
1781252165702803900,-43019,-325764,3295,145022,-298216,-248029,167425,-264808,443475,6078826,7753109,4250570,7606614,-4047152,6553693,-1147970
1781252165702803900,-25746,-297804,-80098,198118,-272202,-182321,95596,-314873,751298,6548351,-8228877,7167103,7648557,-6038500,6567014,-2409280
1781252165702803900,-7713,-243486,-159555,232095,-222121,-100201,9592,-339166,1089124,5222376,-7708497,-7146879,-6796597,-5840499,8217522,-5606676
1781252165702803900,7893,-171476,-218171,238694,-155896,-16310,-73574,-328891,1361859,6038400,7442186,-7114583,-4467172,-7282611,-5707661,-6523890
1781252165702803900,15495,-96466,-246599,212580,-88535,51700,-140920,-284271,1491869,-8165713,7783970,7537914,-4208265,-8099596,-5761278,-7195490
1781252165702803900,14791,-30505,-236548,158333,-30334,92344,-177337,-210557,1438442,-7991198,8025331,7380601,-4012849,-6405238,-8348437,-7589866
1781252165702803900,7594,16121,-186985,86903,10302,99656,-173133,-119116,1201155,-8098003,8220619,-7776248,-3980776,-6375122,5730664,-7729724
1781252165702803900,-3281,36143,-104857,12538,27470,73299,-126500,-26258,816669,-6548375,-6494118,-8378457,-4178163,-6065207,5120189,-7680510
1781252165702803900,-13988,26909,-3619,-49290,19224,19280,-43332,51158,349313,-5412056,-6613888,5904169,-2748984,-5693758,4690526,-7529238
1781252165702803900,-17673,-6548,103688,-82391,-8048,-48947,68136,100640,-121657,-4575691,-6779951,5648850,-3724933,-5467759,4587704,7538212
1781252165702803900,-11356,-57716,199594,-78055,-48855,-118269,191412,113010,-523521,-3899630,-6998178,5528791,-4883766,-5537300,4858953,7958920
1781252165703410500,-3270,-126476,257224,-42734,-108670,-184951,296455,78174,-810328,-5133209,-7287940,3654665,-4222931,-5966952,3569715,-6584412
1781252165703410500,6821,-201888,268490,19439,-178286,-238171,368693,1857,-956071,-5991531,-5790381,4052813,-3793029,-4843693,4639841,-4754240
1781252165703410500,24226,-267292,241405,104441,-239509,-265155,407648,-98700,-961043,-4517824,-6569307,6401913,-3509229,-4226106,5729194,-5229912
1781252165703410500,47914,-313080,184180,199966,-283276,-262787,412595,-205691,-856968,-4794159,-7452607,-8333316,-5166732,-5838255,6615983,-5791494
1781252165703410500,74225,-334915,108574,290887,-305743,-234841,386944,-302184,-695267,-4778372,-8362380,8215919,-6518978,7603301,-7775097,-4451862
1781252165703410500,99749,-332036,29441,363974,-306027,-188731,339575,-372944,-532051,-2730000,5700106,6002882,-7499527,6831287,-6157716,-5172130
1781252165703410500,119610,-309107,-40561,408225,-288487,-135604,280238,-409577,-416534,-2867123,5340290,4057174,6793852,6613030,-7191591,-5737830
1781252165703410500,131864,-271697,-89859,419758,-257622,-84929,221142,-408489,-377703,-3176401,7144162,2490671,6810303,6946935,8215452,-6103942
1781252165703410500,134754,-227630,-112902,399427,-220011,-45368,171347,-374114,-421135,-1841300,7073433,3247991,-7825233,-7183471,-8127091,-6282466
1781252165703410500,128511,-184035,-109767,353619,-181775,-21473,136356,-315557,-527620,-2915827,7265382,4157334,-7764644,-6484161,-7788199,-4457974
1781252165726172100,113871,-147140,-86970,291135,-148525,-14763,116314,-246193,-660376,-6054743,-7201251,5139914,7135260,-7697596,7566822,-4783318
1781252165726172100,95507,-117639,-50177,225463,-119795,-20119,111032,-177766,-770977,-7046872,-6885302,6101790,5442360,7938918,4845887,-5202138
1781252165726172100,534585,413309,491913,645422,554501,620259,768565,876587,1485955,-5528069,-5995823,7411817,6404675,-7570709,5551813,-3118106
1781252165726172100,-51690,-202543,-100165,6614,-233338,-198834,-39109,-318150,2578326,-6992617,-4318268,7497117,7872742,-8004744,5631021,-3188068
1781252165726172100,-49826,-171719,-65374,-4364,-192777,-180104,-17721,-261919,2109596,7357154,-4244265,7933596,7816264,6743381,6890905,-2721770
1781252165726172100,-43222,-140118,-47436,1190,-151342,-150884,-6162,-222800,1715731,7455470,-6188464,8123815,7679811,6509793,-6583428,-4479512
1781252165726172100,-33576,-107080,-46128,17322,-109573,-112806,-7700,-198316,1430797,-7006470,-7985481,8096263,-7365308,6057236,-5601644,-8012612
1781252165726172100,-23051,-72860,-57302,36450,-68884,-69846,-21698,-182863,1262699,-4781272,7168984,7912644,-7754923,5537623,-5044556,5836230
1781252165726172100,-14860,-40083,-74971,50101,-32399,-28698,-45125,-170973,1192426,-4711241,7603050,5777826,6835393,6986835,-3161438,3690726
1781252165726172100,-13534,-13853,-95075,50490,-6411,2216,-75312,-158742,1179893,-4770843,-7001040,3961555,6958422,6479380,-4012253,4271088
1781252165726172100,-20079,2892,-110857,35206,6796,17995,-105363,-142408,1177524,-5024746,-7197943,4443719,-7655680,4372782,-7198630,5338062
1781252165726172100,-28749,13239,-111354,10400,13413,21505,-122449,-116175,1144720,-7366517,-7624523,6964108,-7575002,2894378,6486050,4822598
1781252165726172100,-38640,15924,-96481,-20062,13126,13012,-123852,-82012,1049194,7186318,-8221677,-7482563,-7510962,2038923,5673882,4670822
1781252165726172100,-47986,11536,-69727,-50253,7114,-3991,-110237,-43582,879024,5168403,7881035,-5431739,-5641377,3575960,5211773,6553078
1781252165726172100,-54453,2694,-36571,-73694,-1225,-23608,-85120,-5580,645440,3435107,-7660896,-5594429,-4184821,7017348,3339505,-6812294
1781252165726172100,-56694,-7194,-5081,-85928,-8913,-39465,-55800,27155,378682,2037312,8311138,-7679230,-5050629,-6838188,2257081,-4234294
1781252165726172100,-55639,-15613,15300,-86648,-14609,-47258,-32540,49729,119527,2864722,5830626,7327219,-6019873,-4655231,3784541,-2594052
1781252165726172100,-50700,-17579,20469,-76187,-13916,-41883,-21758,61918,-87270,3712436,3942162,5948587,-5089224,-5180448,5568470,-3721782
1781252165726172100,-43266,-10337,8361,-59047,-4971,-22244,-28788,64813,-206690,2620716,2706305,6863727,-4309440,-8062909,7334189,-5260290
1781252165726172100,-35254,7536,-19146,-41484,12634,10086,-55229,62421,-220867,3579733,3967531,-7041678,-5472304,5852808,-7955658,-6920352
1781252165726172100,-28209,35879,-55720,-29863,38642,51170,-97589,60114,-133601,6268131,7303684,-6381160,-8195080,3281294,7958933,8357582
1781252165726172100,-20963,74931,-89724,-27244,74373,97563,-145671,65712,31973,-8317321,-6445810,-7759036,6560963,3105627,-8064381,-7658390
1781252165745916600,-15572,119580,-113576,-37842,114984,141244,-191636,82409,233113,-6660703,-3943142,7732896,5271123,5161990,-7829112,8204406
1781252165745916600,-16482,160776,-125194,-65338,150477,172113,-231199,109159,416779,-5509225,-2099055,-8354490,4630107,7272643,-8025217,7778926
1781252165745916600,-23013,193140,-119620,-106481,176659,185533,-255619,144618,535823,-4768089,-943872,-7870014,4460977,-7437069,-6613778,7784168
1781252165746690100,-32422,213374,-94640,-153896,191549,180653,-257910,185909,556742,-6179240,-2282476,7280641,6405702,-7406916,-7454907,8086480
1781252165746690100,-42092,219016,-52445,-199186,193884,158946,-235478,227238,464993,-7415572,-5658365,7603601,-6865204,7554879,-8204322,-8264540
1781252165746690100,-49286,209693,1108,-233681,183986,124772,-190165,262086,269022,-8323051,-6791552,7753014,-6092562,6017563,-6809572,7017592
1781252165746690100,-48153,190414,62567,-247161,168443,87257,-123065,286540,1042,6079735,-5773747,7749108,-7899825,6612913,-5356075,7533124
1781252165746690100,-36945,164956,123404,-235120,150530,53442,-42417,296293,-294314,4412515,-4704743,-7271219,-8188830,7121391,-3868575,-7057498
1781252165746690100,-25368,128158,163125,-206207,120296,19757,29013,281066,-574542,3384354,-5489892,-7765453,-7084894,5594608,-4302862,-7283978
1781252165746690100,-15801,83369,174474,-164959,79223,-10782,80311,240715,-794007,4722248,-7888997,-8302071,-6570370,4185306,-6460141,-7722350
1781252165746690100,-3217,41539,164772,-111665,40147,-29773,113788,184447,-912979,7926927,-7899702,7982834,-8314094,2935287,-6362497,-6363936
1781252165746690100,11825,7896,138177,-52854,8153,-35493,128425,120397,-914722,-8068916,-7765925,7607108,4995877,3762910,-6258241,-5243344
1781252165746690100,26482,-15908,99362,2496,-15643,-30752,124030,55721,-805593,-7716011,-7619477,-7505969,4095446,4516846,-8139900,-6139978
1781252165746690100,38942,-28925,55531,47483,-30371,-18851,104704,-1490,-610415,-5937990,-7570104,-7843376,3742552,3306973,-8026380,8109080
1781252165746690100,46335,-33250,12663,75893,-38198,-5285,74630,-46214,-368630,-6715368,7218507,-8039763,3923683,4190361,-6220101,8074062
1781252165746690100,48513,-30385,-22158,86298,-39748,6732,41168,-74085,-123643,-7734761,7244309,-6218548,4523445,6896244,-6779896,8358036
1781252165746690100,45404,-23060,-44873,79626,-36812,14103,10225,-84566,83694,8012108,7176423,-4580631,5357695,-7558605,-7498843,-7949766
1781252165746690100,38165,-13429,-53891,60033,-30832,16105,-13478,-79143,223707,7190233,7066128,-5059654,6221387,-5664862,-8252095,-5598894
1781252165746690100,28121,-3701,-50732,32701,-23328,12966,-28051,-62243,282105,-8164515,-7917562,-7377646,5057736,-6078281,7871710,-5609994
1781252165746690100,18140,6051,-37756,4705,-13710,7708,-32432,-38199,262544,8289224,-8211065,-7443851,5808835,-6575577,-7469769,-5969834
1781252165746690100,9906,15413,-19513,-18627,-2134,3038,-28693,-12520,182934,6463959,8387175,-5513283,8162636,-7056476,-7938738,-6709232
1781252165746690100,3944,24147,-1810,-34143,10400,988,-21293,9974,70316,5229405,-6531644,-5670362,8075805,-7437472,6746811,-7768246
1781252165746690100,156,32224,10681,-41017,23132,2779,-14719,25747,-45187,6337206,-6692646,-7675290,5911313,-5788660,5190999,-7130088
1781252165746690100,-688,40927,16717,-39224,36960,9944,-10954,34595,-135969,-7479074,8140798,7421518,4012874,-6149991,5998764,8118596
1781252165746690100,597,50268,16070,-31542,51253,21521,-11685,37095,-184470,-6948652,6554049,7954423,4445186,-8258146,6868390,4910314
1781252165746690100,3098,60039,10436,-21142,65236,35746,-16742,35772,-185244,8051231,7164836,-8284327,7014980,6841114,5737651,4296906
1781252165746690100,5309,69019,2444,-11955,77292,49503,-24911,32895,-145434,6128514,7714490,7075347,-7254290,5595676,4635410,4267604
1781252165746690100,3824,73527,-7999,-8914,82605,57554,-36945,29332,-83545,6047405,8081255,7691530,-6797240,4737152,3499530,2954360
1781252165749880700,-12658,61957,-31241,-22960,65763,47690,-63450,18433,-29277,7653700,8184031,-6757040,-8215439,6057992,2311555,4330244
1781252165749880700,-3633591,5119511,4342068,-5729627,254604,2066090,-52078,3712124,3417641,3404419,3850511,-5022938,7397466,7697114,1529300,-980128
1781252165749880700,814581,-1118921,-1037852,1280328,10749,-433502,-68671,-825593,3130951,-5480734,-8208348,-5498136,6314935,8178277,1751538,-5366990
1781252165749880700,657466,-912510,-838935,1030032,10846,-359339,-57079,-658667,2542797,-4698170,5982707,-6268589,7223595,-6016054,2354863,-4510708
1781252165749880700,499412,-703776,-634036,778840,10433,-284103,-40396,-488607,1914100,-5740747,5582107,-5207001,-7071945,-4058618,1001061,-2203348
1781252165749880700,357047,-516918,-449930,554921,8178,-216063,-24268,-336853,1322591,-6334806,5368254,-6234469,-5268751,-2714313,1828200,-2563336
1781252165749880700,245181,-369525,-306895,381649,5598,-160013,-12143,-218977,841053,-4554270,3554011,-7082255,-4159854,-3768804,2751854,-5278590
1781252165749880700,172147,-271204,-217218,271656,4191,-118681,-7311,-144069,521300,-4518161,4232462,-7647014,-5522434,-6773778,1903068,-8019182
1781252165749880700,138669,-222448,-183380,224901,4549,-92205,-12372,-112690,384319,-4223277,7095568,7015812,7918696,7417528,1435857,8091494
1781252165749880700,138917,-214375,-196557,230308,8180,-77878,-26797,-117010,417888,-3840149,-6938870,5512470,5060908,5411404,1315703,-7390942
1781252165749880700,163843,-229702,-237549,270070,18687,-69352,-45367,-141310,581223,-3548794,-6378740,4568428,2940374,4033556,1450173,-6214906
1781252165749880700,197859,-252237,-287516,319093,33736,-63512,-66234,-170612,810222,-3502663,-5974844,4056701,3570671,5094172,1706850,-7009178
1781252165749880700,223639,-268902,-330800,351998,47028,-59673,-89420,-192068,1032179,-3793730,-5797034,3805393,6638108,6254829,3818843,-7584186
1781252165749880700,230689,-267981,-350914,352622,56994,-55409,-109779,-194614,1184245,-2552596,-7753513,5509274,7908766,5407457,7355455,-6044570
1781252165749880700,214931,-243355,-337559,314979,63113,-48746,-121634,-172330,1223769,-1885550,7126289,-8069399,-7484533,6416903,-6749881,-4596870
1781252165749880700,178068,-196348,-288823,243112,64970,-39749,-120787,-126619,1134673,-1679042,5364134,-7562349,-4341671,-7887138,-6857315,-3324502
1781252165749880700,126300,-135014,-211979,149131,61589,-30255,-106055,-65201,928713,-1750914,3804101,-7613409,-1825302,-8054766,7431757,-2288618
1781252165749880700,72764,-68077,-115795,53469,57301,-19752,-74181,2408,644351,-1887861,4368859,-6231122,-1975507,8131390,4971499,-1513044
1781252165749880700,29004,-7271,-15119,-24455,53461,-9789,-27204,64056,332952,-3773222,4893779,-5410565,-2648752,7304442,2816815,-979102
1781252165749880700,-2049,31285,67287,-74949,42733,-7702,22190,103586,43493,-5096007,5339585,-4964757,-1855872,4599523,3057757,-632258
1781252165749880700,-21223,36318,112642,-94872,17887,-19230,60610,109710,-183174,-5784969,7556180,-6565360,-3475983,4305057,5501172,-2269044
1781252165749880700,-24245,11885,121473,-80787,-14124,-39584,87869,84282,-315358,-7763414,7478384,7050425,-5144225,6316835,7935694,-5496264
1781252165749880700,-8979,-29459,104030,-35392,-43033,-59966,108277,37459,-341713,-7128236,5399544,4656898,-6628691,-8278543,-6543217,-6155272
1781252165749880700,16651,-76964,68816,26620,-66947,-76933,119690,-21047,-277893,-4391740,3567905,4964152,7147102,-7891740,-6396320,-6372906
1781252165749880700,43557,-117735,28229,88300,-84259,-86608,122239,-78508,-156151,-2023587,3959464,5700026,4902648,7639500,-8211349,-6230200
1781252165749880700,61257,-141576,-6397,132084,-95864,-87640,115762,-124122,-18672,-2175939,6323393,6632845,5313987,-8101194,6927799,-3993264
1781252165749880700,63474,-140628,-24375,146419,-101401,-78732,103221,-148379,94730,-4691287,-8323693,-7392948,6100221,-5230056,5475584,-3893796
1781252165749880700,46935,-113538,-20630,126006,-102188,-61392,86982,-147825,153561,-5482444,-8368865,-5224236,5167845,-2900132,4210681,-3946152
1781252165749880700,13564,-64136,4650,74439,-99185,-38021,70169,-123518,144448,-6568915,8336148,-5673988,4474416,-3156632,3129435,-2369170
1781252165749880700,-30970,-1956,45197,1942,-93957,-12887,54740,-82515,72129,-7778084,8264449,-6571496,3861114,-5746504,2222236,-3259128
1781252165749880700,-76994,61549,92105,-75378,-86533,10558,43139,-33970,-41178,7869813,8218640,-7755620,3209901,-6511236,1475757,-4432290
1781252165749880700,-115057,113455,133486,-141000,-77964,28109,35592,10503,-163420,5128317,-6684074,5908368,2462994,-7436472,872094,-5768640
1781252165749880700,-136968,143450,158391,-180594,-68908,37016,31360,41014,-259933,4960463,-5062843,5178001,3505701,-8352261,2267227,-7112932
1781252165749880700,-138101,145078,159116,-185741,-60102,35644,28685,50380,-302384,5253366,-5600090,4887782,4219546,7684730,3455818,-8308038
1781252165749880700,-116891,119004,134523,-154102,-50675,25630,27178,37610,-274490,4046711,-6113696,3251101,4675698,5373587,4389035,7553686
1781252165749880700,-77395,70594,88230,-92214,-40715,9308,25485,5668,-177571,5239770,-6550740,2426580,4984779,5616998,5055721,-7904766
1781252165749880700,-26893,10361,29040,-12389,-30102,-9369,23025,-37437,-29528,6478409,-6872772,2308373,5265730,6252043,5482285,-6517862
1781252165749880700,24563,-49113,-31245,68996,-19081,-26326,19696,-81703,138396,5654409,-5185849,4548379,7490591,7163766,5724010,-7011598
1781252165749880700,64900,-97023,-82686,133486,-10767,-39513,13434,-117771,287297,6641345,-3676825,-8230601,-7250047,-6712872,3976387,-7287376
1781252165749880700,82889,-126071,-118176,164858,-9534,-48899,1500,-139228,379233,-7718734,-4272763,-4984728,-7310486,-6062072,2495773,-5519390
1781252165787527100,79351,-125349,-124042,160603,-8140,-47629,-7705,-136169,392944,-7957745,-4815959,-2751442,7570891,-5661565,3251783,-3949952
1781252165787527100,54330,-94275,-98475,120374,-6133,-35644,-12512,-107678,318265,8148816,-5277402,-3494451,7878313,-3705281,5974248,-4543288
1781252165787527100,11065,-38478,-46836,50122,-4433,-15243,-13408,-58094,161848,7232363,-5637789,-4931617,-6709013,-2379285,-8343563,-5155496
1781252165787527100,-42652,33178,22563,-37537,-2037,10981,-10012,5103,-52420,4422839,-4013847,-4898820,-6777104,-3527002,-8106315,-3869118
1781252165787527100,-98075,108658,96938,-128082,505,39105,-4138,71733,-289595,3999116,-4470873,-5222367,-7011276,-6725088,6951653,-2815422
1781252165787527100,-147823,174685,161659,-208314,1421,63903,307,130210,-511378,3969424,-6749006,-7454148,-7402406,7184610,5494150,-3851542
1781252165787527100,-183604,222832,207184,-265467,2177,83299,2413,173141,-680665,4375651,-6780751,7654227,-7896608,4854575,6249516,-6631120
1781252165787527100,-201077,247587,226984,-292975,3319,95570,559,195485,-771220,5161760,-6721177,-8128451,-6528558,3177022,7074298,7878428
1781252165787527100,-199337,248227,219514,-290007,5241,100471,-6281,196681,-771865,6189455,-6614137,-6588801,-5372897,4034184,6061816,6180196
1781252165787527100,-180876,228555,189006,-261435,8740,98962,-17502,180112,-688067,-7629651,-4631210,-6506876,-6230479,7020863,7233289,6898744
1781252165787527100,-91587,252843,214809,-164609,89836,145544,40020,196894,-497045,-5057059,-2487735,-4411802,-1466700,-100639,6743490,4549354
1781252165787527100,5406712,6689595,649536,2729190,-201272,-1119358,808821,-6111677,4859435,5570765,-1376405,-3073739,-1982375,-1911481,-2459651,-6725042
1781252165787527100,-861206,-838319,469672,-276438,784819,1044884,446639,2567448,-8066062,267159,-649179,-704759,-909295,-852369,-585653,-4603802
1781252165787527100,-1183463,-1230804,-180491,-728076,-42871,165982,-355837,1041991,-8090857,-195381,-750076,-1218232,-2278012,-2900484,213563,-3866582
1781252165787527100,-457721,-437043,345001,-95599,624918,782671,353092,1803253,-7543053,-103360,11297,-1083735,-2084983,-3890058,1830189,-2094670
1781252165787527100,-332528,-289220,263832,-83997,484979,598883,255272,1370167,-5910041,-884762,7103,-38345,-535183,-3734438,2327903,-1911892
1781252165787527100,-704162,-679902,-294806,-570931,-287608,-206144,-476444,32110,-6971759,-2130759,-520591,-35220,-1626137,-4227415,89072,-4833282
1781252165787527100,-84251,31094,305511,6192,432746,492151,291691,1033551,-7027491,-2037896,117930,564405,-1447497,-3343933,-736893,-5986068
1781252165787527100,-99294,28087,267624,-44409,333056,383139,232358,850173,-5557539,-2135956,238838,331493,-234553,-2987801,-153821,-5916834
1781252165787527100,-1750098,-1480939,-385163,-6318585,-5929771,-6031140,-2114404,734879,-6555570,-4595615,2421162,-5468050,-4912586,-7756804,5704889,-5641092
1781252165787527100,150609,198144,326709,1291368,1599137,1689623,667257,661836,-5986661,-4190372,4271935,-2676811,-1863827,-4163551,-293915,-5089696
1781252165787527100,13708,12454,247513,993684,1268163,1359400,527663,603718,-4233341,-1633185,-643542,3455027,-1618796,-8322320,-8052470,-6188678
1781252165787527100,2629093,57434,5508337,-1158033,-1163361,4279916,-3345020,2623473,3075919,-1014776,4883519,-2556773,-1633637,-3739987,-998671,-6698818
1781252165787527100,-824141,-367425,-1162920,910721,1128241,-24780,1127014,-36176,2285396,550390,4429573,-1362029,-1898425,-1913339,-285865,-4987960
1781252165787527100,-746365,-448379,-1006010,664019,538955,-3627823,-2424258,-1569182,7674396,5424685,-5636013,-206951,-286097,-1841191,-1745325,-3278742
1781252165787527100,-4202742,-4006495,4423870,489708,592926,630044,1385420,229839,2515018,1408520,5804056,705709,-2926864,958862,956577,-1957372
1781252165787527100,357312,398241,-1897183,389909,400339,498892,1050395,95678,2846168,1584214,5074072,1219841,-2889634,1395420,953461,-957304
1781252165787527100,-126340,-196046,-2055113,-143040,-389122,-266680,87511,-1062366,658474,-1070364,3943250,-1079874,-5033792,756658,-1639629,-1179670
1781252165787527100,426704,403401,-1069643,475860,401850,493085,711632,47579,-328833,-2597240,4072283,-2475337,-5291334,1050923,-2672137,-107154
1781252165787527100,340646,336271,-824888,480987,376568,416631,543479,-108652,342481,-2614634,3738373,-2573373,-3856258,438913,-2171161,-324586
1781252165787527100,-254911,-269036,-1208922,-22988,-318089,-332124,-250057,-1250500,-1203796,-4854267,1188921,-3246615,-2863056,-2594830,-3975909,-1463872
1781252165787527100,230603,320994,-480980,580624,524971,435196,552338,-74681,-1364561,-5416804,180811,-2829727,-613485,-3814357,-4062749,-856938
1781252165787527100,108582,225862,-517135,516460,471540,334588,506127,-157913,122507,-4148986,801759,-2817674,204319,-1444338,2883239,-6714026
1781252165787527100,2766713,1022535,2145417,2228698,-2518665,681803,5576621,-1158190,-5937277,2905493,-6996731,-6284713,-5738551,-2732973,-2522388,317000
1781252165787527100,-667147,-150256,-1344435,-81451,962834,24013,-751355,-25244,4492508,1460914,3850685,-997044,3945449,-1498247,-1097604,428800
1781252165787527100,-547107,-169608,-1312860,-93876,725635,-49248,-559114,-90263,-4285592,8058783,6758065,-3604966,4825639,-3817548,3846036,769868
1781252165787527100,-3733420,-2556868,-1589367,7033033,7788958,7184589,-5364510,-158422,3440336,1554200,6487674,1531434,3004902,1740251,-250746,1255472
1781252165787527100,78876,-129381,-1594001,-2221785,-2122876,-2530796,93348,-1268613,1150564,-476843,2840216,1932032,1822346,1795711,-496428,-886496
1781252165787527100,232629,-51458,-1319824,-1749225,-1801758,-2080835,120390,-1105900,-2428902,-3820876,-1930068,2803186,1392752,2137664,-2314881,-1865204
1781252165787527100,327260,11504,-1049707,-1284729,-1438624,-1637524,69557,-980171,-5582285,-4989573,-4190894,3413752,-775273,149227,-4165464,-2741982
1781252165787527100,357612,59113,-804635,-877452,-1071271,-1241694,-28478,-881754,-8177517,-4149292,-5931592,3672064,-4299339,-1897155,-3993316,-5455616
1781252165787527100,328328,91179,-602140,-568812,-740478,-926207,-138851,-796634,6621477,-3405209,-7099042,3545913,-5084628,-3819318,-5695581,-5981938
1781252165787527100,252970,108284,-452379,-383908,-481696,-709439,-230222,-709334,5237693,-2725088,-7726918,3070747,-3473648,-7317162,7899673,-4598752
1781252165787527100,151789,112394,-354534,-326459,-316551,-592151,-279620,-606558,4351838,-3948214,6974733,464778,-3704491,-8199962,5504185,-3491214
1781252165787527100,49676,108563,-295664,-376763,-246818,-556183,-274615,-478659,3816418,-6735985,7349097,-1952820,-5716660,8215063,5805564,-4538542
1781252165787527100,-34334,98773,-260704,-501269,-261780,-574996,-221650,-327125,3457448,7909200,7837432,-4006511,-5626920,6435383,-8359217,-5512626
1781252165787527100,-88989,83293,-234715,-658037,-339748,-617994,-141841,-162838,3108978,6435064,6364423,-5572391,-3841219,7159656,-7693294,-6307968
1781252165787527100,-106914,65939,-199480,-800593,-445180,-652457,-57799,-639,2646264,5529873,6840680,-6599897,-2631358,8046790,7865158,8053868
1781252165787527100,-87741,51932,-140955,-888380,-539543,-651745,9060,142865,2002586,5029355,-7863456,7782511,-2028771,-7912480,6785700,6230538
1781252165787527100,-38640,45260,-53904,-895798,-590950,-601967,42265,250918,1173257,6601594,-8280990,6100681,-1950422,-7366006,5765278,4995944
1781252165787527100,28220,48905,57049,-815272,-579938,-502970,34677,311191,208394,7853207,7789537,6883002,-4100646,7675578,4753390,4256192
1781252165787527100,102173,67445,183626,-654701,-497773,-364278,-5426,320627,-802697,-8190174,6931829,-7134592,-7956257,7672690,3732408,3846290
1781252165787527100,172637,102727,310658,-437555,-352589,-204968,-61239,284166,-1759420,-8067099,6084631,-4807013,7556128,7296357,4589249,5441790
1781252165787527100,225832,148041,413096,-202321,-174020,-54257,-118639,208948,-2579445,8240694,5392893,-3112255,-8028078,4758906,5168914,6663106
1781252165787527100,252892,194783,468597,11464,1097,61016,-162635,108373,-3212752,7303328,3077906,-4008250,8333563,4258915,5478853,7333072
1781252165787527100,256645,239331,470546,175965,145175,127370,-173485,3449,-3647001,6103599,3229963,-5269150,6465226,3799617,7435280,7387386
1781252165787527100,250606,283880,429165,280641,245455,148045,-131741,-79940,-3907245,6760004,3656347,-4841419,7031606,1613831,-7860032,5008412
1781252165787527100,243533,323897,354872,322413,290472,130162,-38151,-126226,-4056725,7308549,4225491,-4701822,7662539,1826888,8086342,2538854
1781252165787527100,243173,354932,264073,310882,280236,89014,94156,-127005,-4174001,7882753,6655314,-6563109,8115016,2298312,5317190,233268
1781252165787527100,253004,371946,174867,263571,224165,42505,240882,-83860,-4333883,-8209945,-8161780,6801668,8201951,2954594,2903893,202440
1781252165831894800,273583,372489,106105,203281,141126,9354,374316,-5057,-4586451,-7387185,-6799290,4144353,7832535,5563774,953876,4950952
1781252165831894800,-259199,-139222,-382327,-673816,-599906,-654713,-874780,-2629818,-3596435,-6966079,-6488145,3475239,8334287,7254265,418125,-8320928
1781252165831894800,459246,437411,188238,316558,135274,184663,814128,829947,-1813572,-7227245,-5747925,6649398,7622787,-7031431,4034930,7098120
1781252165831894800,454910,369820,220810,284922,68780,214802,722817,805806,-2931289,-7877010,-7788767,-7934972,4175619,-5793042,4277904,5005562
1781252165831894800,433852,292698,286757,279278,39568,263192,565792,754363,-4004414,-8313253,7124893,-6096220,1168869,-5046183,4408073,5272496
1781252165832494600,393179,213112,372921,291304,46496,315640,364956,681796,-4879737,8179401,7573340,-6669225,748465,-4678122,4393889,7586152
1781252165832494600,333591,137724,462950,306980,79670,355643,150235,597968,-5436644,7988867,8326737,-7544495,2763286,-6403718,2374717,-7111008
1781252165832494600,260941,73103,541697,312545,124789,370081,-45013,515819,-5611903,7851766,7542390,8131734,3140547,-7863522,592235,-5394708
1781252165832494600,183476,23094,596092,296191,164728,350142,-192308,446214,-5414471,-7152438,5470684,5074618,2038744,7899747,1034400,-5996784
1781252165832494600,111402,-10370,618503,252852,184947,295185,-272217,397254,-4922067,-5650505,6066973,4302815,3353672,5545577,3475673,-6744244
1781252165832494600,54869,-27561,607858,185566,177055,212548,-277473,371848,-4264541,-4430714,6989351,5713490,4726669,5895162,3859629,-5675502
1781252165832494600,24427,487757,-518867,7524779,7767933,-3176189,3162140,4929954,7558159,-2977105,-5273701,3877209,2322487,-7713662,2940192,-1900248
1781252165832494600,-1061,-159556,742316,-1704366,-1705993,771859,-903422,-689826,-1777117,-2821042,7946535,-7195355,-7321317,-5766479,3155271,-1061248
1781252165832494600,18698,-125509,630221,-1446167,-1449476,562402,-622082,-480579,-1732388,-4040517,-8271961,-5703313,-5546000,-5405007,5941749,-1135272
1781252165832494600,62247,-86488,525207,-1143124,-1174864,391146,-336617,-270107,-1986988,-6905743,-6311766,-6131968,-6451903,-5301128,6517481,-1240048
1781252165832494600,120584,-48044,441793,-821369,-902521,282443,-87299,-88368,-2496680,7599072,-7008431,-6387361,-7731321,-3659399,6943313,-1248400
1781252165832494600,182182,-14610,388393,-509343,-651434,249061,95126,42443,-3160255,7814278,6801053,-4657033,-7251374,-4535436,7176431,-1076240
1781252165832494600,233248,9151,364364,-235020,-438138,287836,192637,109896,-3843169,-6643483,5840182,-5084991,-6922858,-7569394,5324952,-2574198
1781252165832494600,264117,22579,365124,-18035,-269872,384510,206820,116811,-4402053,-4573745,6857835,-5599488,8361272,6373777,5466840,-5466620
1781252165832494600,268111,26131,380645,130177,-147709,514109,153596,76906,-4715962,-4824456,5986609,-4351221,7385722,3961890,5497620,-7621786
1781252165832494600,242640,20908,397627,207619,-67667,646384,58484,11752,-4709274,-7204850,3631428,-5392490,7033024,2136368,3581196,7651692
1781252165832494600,190528,9425,404541,221905,-20739,752715,-48048,-54034,-4364210,7259761,3923438,8373678,5405140,969785,3832832,6642200
1781252165832494600,120928,-3711,395715,189565,6770,813312,-135533,-96621,-3719900,5126630,4684092,5681120,4548464,431605,6039162,5936646
1781252165832494600,41954,-17914,365898,127354,23224,815224,-186346,-103070,-2866514,3293661,5767367,5325875,6148196,394757,8043631,7225196
1781252165832494600,-40001,-35384,311738,50231,30826,755353,-197796,-72155,-1924070,1865901,-7926860,5220871,-7136915,2542510,7959624,8180814
1781252165832494600,-115727,-55481,239903,-26030,34234,645241,-174006,-10778,-1012795,2790630,-7110012,3493758,-6105549,6351436,6106984,6820954
1781252165832494600,-176823,-76209,161579,-88807,36644,506109,-126823,67306,-231556,3902212,8327002,2298481,-5590811,-7360538,4727457,7208206
1781252165832494600,-218834,-96335,88187,-131611,38495,361937,-73944,142759,358237,5127889,-7952975,3479733,-3772127,-5193164,3876913,-7614872
1781252165832494600,-240694,-114257,29136,-152755,38823,235388,-33232,196730,741673,8251111,-5876958,4768592,-4635565,-3923101,5414791,-6147722
1781252165832494600,-241711,-125535,-6348,-152191,40670,145437,-14092,216724,950476,-7662465,-4344855,6011473,-5849011,-3403952,7070620,-6917536
1781252165832494600,-224523,-126578,-15882,-132927,46566,101202,-19631,197586,1048518,7905159,-3269260,7074502,-7140661,-3379204,6798448,7307976
1781252165832494600,-200299,-121308,-11454,-105187,50153,94718,-53330,137160,1108798,6760320,-4379998,5985426,6659465,-3542493,-8284552,5315310
1781252165832494600,-179948,-114056,-9062,-78078,46426,109743,-110677,42363,1199797,7564938,-7201037,6760294,4388708,-5476098,-6908054,3987352
1781252165832494600,-166048,-103127,-16536,-52586,41246,131368,-172464,-68467,1374032,8140919,-7493329,-7644780,2957374,8126287,-5957231,5178020
1781252165832494600,-153271,-82088,-33777,-22301,48115,149140,-210989,-169552,1655120,6583319,-5442450,-7710068,2340683,7907621,-3593611,-8332128
1781252165832494600,-141522,-52650,-66634,13579,69550,148719,-211534,-243157,2024383,6943950,-5156781,-8001287,4241386,-8315891,-1968962,-7291380
1781252165832494600,-129582,-17745,-116905,55829,104913,121714,-167487,-277113,2432225,-7809571,-4624967,-6529266,6201003,-7201506,-2894944,8347718
1781252165832494600,-116989,17455,-183060,102516,148836,66026,-83462,-269060,2809745,-6289480,-4016583,-5363735,7877437,-3960316,-5925854,7079432
1781252165832494600,-102270,48629,-257735,150757,194654,-11503,27842,-224182,3087758,-7133271,-3519314,-6314361,-5903734,-2987118,8109799,7547426
1781252165832494600,-85626,70850,-331284,194559,232971,-99315,145875,-156182,3211790,6814450,-3297688,7769683,-3919666,-4293949,7743201,-7275846
1781252165832494600,-68087,80560,-393098,226508,254303,-182523,247222,-82703,3156255,6201693,-3456203,7479638,-4845863,-3972229,-7217485,-5933710
1781252165832494600,-52226,75351,-434115,238339,250438,-247649,310002,-22823,2930276,5780071,-2141298,7472264,-8214823,-2318672,-7298806,-6957176
1781252165832494600,-39977,56108,-447061,224252,217887,-283942,320225,9180,2577403,5609351,-1471201,7696778,5264718,-3316311,-7206539,-7974502
1781252165832494600,-34285,24760,-430069,180318,156499,-287869,272487,4423,2165135,7579315,-1336604,8065414,2432860,-6511374,-7026060,8026680
1781252165832494600,-37756,-15522,-387154,106464,69907,-263553,171463,-37764,1770611,-7300897,-1548770,6600989,2259792,7320152,8049056,5785990
1781252165832494600,-51074,-60141,-325864,7746,-33158,-221050,32629,-109945,1465104,-7445580,-3757430,5394480,2737710,4908306,6566710,4330954
1781252165832494600,-72624,-103414,-255779,-105457,-140181,-173717,-120672,-197375,1299075,-7524973,-5563126,4409562,1964358,3214039,7160301,5517690
1781252165832494600,-99165,-140319,-187695,-219929,-237789,-136269,-262583,-282565,1290766,-7558363,-4899341,5487181,3839425,4158157,-7268367,-7897780
1781252165832494600,-125975,-166691,-131188,-320569,-313327,-120600,-369180,-347831,1423688,7335389,-3878147,8291883,7828867,7335470,-7257132,-6707836
1781252165832494600,-148236,-180458,-93143,-393557,-357441,-134017,-423410,-380013,1649616,5765223,-2583580,-8062996,-7235655,-6457772,7481122,-7706058
1781252165832494600,-171196,-190641,-89143,-436820,-378199,-186100,-430223,-379570,1891933,6385480,-3049643,7502542,1836583,-3657617,-1491201,-6522674
1781252165832494600,-3583746,-3545375,3910539,7058427,2140694,5947508,3981134,-4961713,4269290,7362367,-2975387,-5198985,-4621477,-1693623,8258411,-4433020
1781252165832494600,625026,612492,-1047084,-2111364,-873525,-1770853,-1274940,812288,5551917,7455681,-1632896,-6222373,-3433399,-1466364,7709121,-4317278
1781252165832494600,507660,495501,-902846,-1699868,-681655,-1579810,-955987,712682,4861856,7857701,-272812,8206117,-2419621,-1303764,6093274,-5927808
1781252165832494600,400850,380904,-751783,-1253062,-471040,-1362296,-626607,614115,3998536,6201018,586681,8092496,-4039709,-1777987,6715081,-7854554
1781252165832494600,315872,281379,-607107,-821882,-265896,-1136871,-329640,523813,3056815,6539066,917072,8115709,-5844315,-2619422,7373047,-7899514
1781252165832494600,257599,205140,-482944,-453766,-89657,-924204,-101450,446329,2144564,6740382,791126,6373053,-5614844,-5385885,7966517,-7933914
1781252165832494600,228598,159029,-386510,-179949,44438,-738573,39754,387326,1366656,4945160,-1510606,4983598,-7118978,7313165,-6501383,-7739560
1781252165832494600,224532,142911,-321711,-15218,130032,-590115,91320,348392,801776,3369344,-5481433,5766905,-8020264,4364664,-6607132,7724380
1781252165832494600,236167,151230,-287499,44587,168637,-482089,66128,328402,490306,2084773,-6834686,6453733,-6363769,4555598,7900250,5250906
1781252165832494600,252659,175064,-277089,20443,169821,-410698,-10047,323827,430005,3007491,-5701324,5049334,-6272464,5632225,7585548,3766046
1781252165832494600,265159,205348,-278061,-54369,150017,-364924,-103225,331148,580616,3958954,-6135844,3674388,-7650618,5438371,-7722967,5021610
1781252165832494600,263807,230088,-280852,-146283,122403,-334362,-184671,342866,870304,3001405,-6088698,2362751,-6661047,7662822,8344822,6592526
1781252165832494600,239197,236533,-281759,-228606,93056,-311694,-237745,349325,1211594,2261914,-5714566,1178906,-5699055,-5134355,7715713,8148836
1781252165832494600,191219,220306,-274021,-279942,69895,-287986,-251079,345187,1525170,1734988,-7089768,204336,-6880862,-3815214,7294259,-5498350
1781252165832494600,126018,183078,-253292,-290156,57630,-256779,-223862,328525,1751888,1402536,-8236201,1392887,-6306747,-3236453,7173732,-5044606
1781252165832494600,52829,130701,-219673,-262062,55572,-216640,-166448,298910,1861140,1234502,7482495,4491537,-4305601,-1561926,7394660,-7052016
1781252165832494600,-17220,72462,-176831,-207795,59367,-169738,-95934,258766,1854110,1192921,8280947,7305467,-3031467,-855417,7938530,7541980
1781252165832494600,-71664,20629,-127805,-142887,66377,-119246,-28349,213198,1760342,1237325,-6202023,-6992777,-2386967,-904354,-8046768,5412144
1781252165832494600,-103004,-15552,-79337,-84775,71241,-71130,20512,166583,1624782,1324791,-4617093,-4874705,-2176825,-1397627,-7123995,5452018
1781252165832494600,-112317,-34260,-42966,-50368,64707,-34878,36183,119192,1492811,3288238,-5578237,-3121458,-4034660,-3874505,-4332196,5671804
1781252165832494600,-104438,-36751,-26761,-47406,42046,-16431,14391,71502,1401780,4909613,-6758337,-1717274,-7420174,-7735822,-3862669,6148774
1781252165832494600,-84739,-25411,-30794,-71541,7122,-15335,-35334,25088,1373419,6138946,-7919951,-632614,6826251,8073100,-5540314,6884798
1781252165832494600,-54614,304,-44185,-104994,-25050,-21448,-88753,-14284,1411581,-7921176,6057186,-1703830,5246741,-7005110,-7204077,7808852
1781252165832494600,-23230,31978,-62091,-132166,-47612,-29181,-128034,-47762,1492026,-7734716,3951158,-4584507,6411470,-6846861,-6927856,-7988538
1781252165832494600,2187,61924,-77961,-136681,-54078,-31032,-136872,-75948,1575739,-7848976,2620489,-5147444,7906101,-6342214,-6840806,7789954
1781252165832494600,14867,81494,-87873,-109183,-43516,-22871,-107939,-101735,1616336,-8137605,3880844,-5519580,7501853,-3899241,-6927638,6844958
1781252165832494600,13048,86267,-88038,-46821,-17243,-1770,-41253,-126092,1574543,8301758,5368462,-7619651,-7852196,-3838305,-5277598,5875170
1781252165832494600,-1881,74752,-77635,43092,18586,31237,53221,-149909,1426417,-6884767,6798009,-7453160,-6999388,-6060675,-4027620,4832778
1781252165832494600,-24996,49802,-58142,145416,54988,71981,158234,-172264,1170700,-7359332,7902877,-5364081,-6854258,8368951,-3154382,3715004
1781252165832494600,-50037,16400,-33586,238955,81141,113105,251991,-192269,829042,7179519,-8287160,-5496149,-5516323,7897419,-2601654,2563520
1781252165832494600,-69555,-18094,-8497,302354,87660,146808,314094,-207403,442969,7257031,-6420730,-7622430,-6869053,-7596801,-2287976,1456732
1781252165832494600,-77788,-46588,12706,317868,68088,165380,329187,-215646,64314,7484510,-7288264,7240308,6425333,-6571573,-2120564,488960
1781252165832494600,-71128,-63116,26907,276156,20753,164017,290798,-214917,-255163,7794347,8200743,7500020,3354297,-5659491,-2007485,1625766
1781252165832494600,-50601,-65968,31760,177228,-52139,140067,201417,-205680,-476417,-6788543,-8141668,7816932,1044748,-6601958,-3748895,4621310
1781252165832494600,-19400,-55548,28296,33170,-142286,96076,74601,-188499,-579783,-4952623,-7879523,8192299,1582161,-7127161,-5110099,7283786
1781252165832494600,16348,-35760,19577,-134964,-238013,37973,-68992,-166159,-570505,-3536734,7328622,-8162963,4687180,-7191049,-4165473,-7214706
1781252165832494600,50134,-12099,10655,-299906,-325274,-24670,-204453,-141300,-477062,-4410245,6274446,7178104,6118643,-6863350,-4989039,-5345722
1781252165832494600,75141,8501,6784,-434264,-391084,-81634,-308491,-117946,-346148,-7199628,5838867,7896914,5863823,-4435635,-5497344,-5764868
1781252165832494600,80625,14403,4951,-519990,-433226,-128424,-370744,-103862,-237195,-7715664,4114051,-6343385,7679175,-2316847,-3888830,-8146418
1781252165832494600,557970,544557,555001,-31933,251508,527212,317434,923633,2128497,-5615469,5509341,-3796061,-5185539,-181643,-1825535,-7592876
1781252165832494600,-63337,-134483,-80446,-595346,-560711,-302681,-476158,-332074,3083425,-4675715,7898769,-2856420,-5356768,-1956047,-1395296,8066496
1781252165832494600,-72977,-140108,-16041,-449805,-460188,-239164,-339757,-293810,2282152,-5063668,-8094072,-3798865,-5519113,-3466481,-524396,6084142
1781252165832494600,-84588,-150565,58752,-255456,-333138,-150633,-171052,-258349,1356627,-5305390,7247042,-6874426,-6347627,-3458588,6116,4397312
1781252165832494600,-94002,-162223,135406,-39150,-195106,-47910,4399,-227140,408319,-3568351,7515169,-7890023,-7647039,-3912742,243651,4862962
1781252165832494600,-99625,-172905,202664,168515,-64385,54637,159344,-202388,-459150,-3977594,7315842,7925018,7638907,-4605312,-1603239,7131784
1781252165832494600,-98423,-178210,253800,342611,46503,146226,274822,-182601,-1155477,-4444439,6715730,5245229,6260612,-7149849,-3250093,-7830326
1781252165832494600,-89692,-175445,284472,465064,129149,218213,339799,-166001,-1621631,-3108887,7752544,3107873,7138048,5784764,-4576395,-6524554
1781252165832494600,-74966,-163936,292888,527358,179814,265766,352328,-150069,-1838693,-2144322,6584271,3457279,8265243,4914265,-5525476,-7569826
1781252165832494600,-56859,-144540,281484,531401,200683,288496,320046,-132445,-1827541,-1540363,5588735,5979261,-7106830,4935530,-6112665,8108088
1781252165884457300,-37193,-117996,257683,489774,200310,291883,259488,-109759,-1639493,-1224558,4981101,-8387843,-5476617,6327959,7613589,3331302
1781252165884457300,-1584431,6977523,8017233,7459064,-2722020,984520,8315493,7466667,-1219974,-6375335,-332598,5273864,1701521,-7353975,-3455379,-4722602
1781252165884457300,346171,-1702173,-1616204,-1301154,830734,94582,-1771105,-1800923,-1066701,-3638078,2657265,-7089454,-5296846,-6764650,-4707192,-6768130
1781252165884457300,279015,-1382112,-1315954,-1084321,684334,102781,-1481528,-1447320,-785086,-4821395,4029967,-5180402,-7139586,-7422609,-5318597,-7371844
1781252165884457300,202462,-1064379,-1001732,-846610,541513,115308,-1162952,-1088660,-583366,-7366257,7545776,-5500786,8053366,-8142189,-4176404,-7480478
1781252165884457300,126124,-783486,-709976,-616487,418018,131156,-854606,-764293,-475066,7705325,-6036743,-5852628,6652320,7718381,-3429265,-7147664
1781252165884457300,58607,-566750,-473417,-423440,322975,146271,-595035,-507600,-447122,6793618,-5332299,-4282761,7247982,6545491,-3025825,-4632590
1781252165884457300,8213,-427072,-312485,-288880,260793,157338,-411559,-337329,-465097,-8379878,-6995820,-4790298,7621722,5138385,-2849989,-2301276
1781252165884457300,-18238,-361229,-230791,-221630,232171,162675,-313948,-255375,-484054,-6675199,-6983437,-5194477,7740427,5461331,-2750865,-373386
1781252165884457300,-20017,-354676,-220431,-219017,229556,160114,-297843,-249382,-464308,-7039390,-7356378,-5474470,7634222,5460656,-4454588,-876700
1781252165884457300,-4598,-387641,-266652,-269851,236927,145130,-348940,-298817,-383377,-5656837,-7971293,-5650613,7382315,5247377,-5664280,-3561418
1781252165884457300,22146,-432113,-341455,-349329,244233,120030,-436049,-372571,-235363,-2950962,8141746,-5775256,7091947,6826565,-4421105,-4291440
1781252165884457300,52123,-462823,-416232,-429572,242821,88246,-524659,-440652,-36841,-1170439,7625178,-7796604,4991697,8133641,-2934302,-5092268
1781252165884457300,78887,-460369,-465416,-483514,229450,55858,-582002,-477748,179427,-291915,-7485089,-7725823,5219286,7353339,-1356814,-7720274
1781252165884457300,97986,-415347,-471551,-491213,205916,29347,-584242,-469091,372125,-159414,-7606389,-5892252,5652649,6721846,-1753505,-8002324
1781252165884457300,106269,-330831,-430929,-445127,175484,12809,-523286,-412977,500326,-2403105,-7362501,-4529195,6238216,6308081,-2126751,-6132476
1781252165884457300,102825,-220161,-351787,-351098,142580,7503,-406824,-320126,534313,-4558747,-4930195,-3668827,-8019441,6131154,-2593456,-6168632
1781252165884457300,90786,-101555,-249778,-224646,113218,13199,-253929,-208098,464833,-4462005,-2613908,-5133752,-7736337,8044097,-3236549,-6004400
1781252165884457300,73445,4133,-146542,-90118,90036,25587,-93259,-99259,303305,-4115475,-604307,-6616111,-7637409,-6966736,-4090326,-5695206
1781252165884457300,55840,80498,-62068,27227,74018,39645,46042,-12793,82385,-3497384,-936026,-7917547,-5878063,-5437905,-5132458,-7198672
1781252165884457300,42514,118332,-10709,105352,62997,49260,139896,38126,-151879,-2677947,-1521277,7908474,-6502169,-4195516,-6292191,-6549206
1781252165884457300,36670,117767,1887,130720,52569,49210,174488,50355,-349490,-3667892,-2345072,7414632,7608461,-3235293,-7465866,-5987940
1781252165884457300,38684,87016,-21046,99902,35975,35181,147904,29271,-468254,-6321406,-5222180,5524072,5213746,-4381226,8236153,-5615110
1781252165884457300,47656,41649,-66915,21718,7859,6477,72081,-10675,-481534,8205450,-7873867,6230932,3261469,-5364676,5481232,-5492856
1781252165884457300,60550,-543,-117971,-86198,-35192,-35211,-31594,-51476,-385703,8161064,6613735,-7660042,1866590,-6064001,5167224,-7514124
1781252165884457300,73786,-22990,-155361,-200266,-93051,-85018,-136447,-74807,-200581,-6829441,6655291,-4995322,1067550,-8285621,7029871,-7589306
1781252165884457300,83289,-14940,-163827,-296844,-161986,-136740,-217037,-67646,33870,-7346237,-8023305,-2800838,817810,6928880,6939808,-7806932
1781252165884457300,86127,26396,-135183,-356346,-234598,-183202,-254368,-24370,265346,6877575,-6108709,-1247540,995610,5977755,6946159,-8114380
1781252165884457300,68646,83456,-85704,-378472,-317582,-229520,-255228,41494,429964,4539996,-6361342,-2278519,3300224,5490859,-7938515,-6581170
1781252165884457300,543549,703495,545927,165284,325931,433472,504162,1161308,2827903,4962187,-6164637,-3187827,7821445,7720379,-5828985,-4558956
1781252165884457300,-71972,123880,-12271,-373558,-548064,-403309,-247828,-985,3791980,4431528,-7135991,-3437137,-6494950,8368730,-7334651,-4536134
1781252165884457300,-72699,202509,102233,-247426,-513467,-358337,-105467,120747,2985240,2842574,7391203,-3362697,-4194767,-7539410,6657565,-3780340
1781252165884457300,-68243,248045,193520,-112314,-441640,-295762,32418,210632,2056292,1711672,5429750,-5269859,-2808814,-7321078,4127975,-3233914
1781252165884457300,-57447,250547,246016,10336,-339457,-223810,141701,253716,1115185,2864903,5682079,-6825095,-2219995,-7760943,3861731,-2852454
1781252165884457300,-42348,207017,249836,101785,-220725,-153162,203112,242683,269410,4000503,7852943,-6016493,-2212812,8034753,5642249,-2589894
1781252165884457300,-23672,126283,207891,153570,-98219,-90758,211289,183643,-391926,3056227,-7068684,-6861029,-2518401,6727797,7294440,-4277056
1781252165884457300,-3582,24515,132286,166033,14781,-41656,172211,91892,-815587,3934260,-7475965,-7257011,-2869980,5363944,6897235,-5693448
1781252165884457300,15173,-77792,41312,148065,106593,-7711,101553,-10311,-990906,4385579,-7981226,-7298078,-4927744,2334602,4727800,-6783346
1781252165884457300,29440,-160058,-43663,114308,169419,11889,21180,-99090,-947990,2488784,8256699,-7125570,-8256001,1912621,4861967,-7539600
1781252165884457300,37066,-204787,-102271,82205,200728,21233,-45169,-152622,-747420,474597,7757726,-6893454,6161316,2065884,5145467,-6121166
1781252165884457300,35608,-203224,-121248,66156,201163,24095,-79156,-157657,-467265,378081,-7532270,8163719,6598743,2771014,3649315,-4779170
1781252165884457300,24650,-154636,-94913,76225,176294,25452,-69531,-109732,-183939,2077026,-8064734,6584737,-7431854,3904297,4370811,-3623194
1781252165884457300,5163,-67183,-26749,115002,134551,28949,-15038,-15433,41987,3537173,8342712,5142799,-4851303,5272048,5094405,-2724946
1781252165884457300,-20245,44236,71458,177894,85568,36807,75671,110228,176564,2999258,8169138,3855934,-4615495,-8245153,5737040,-3982002
1781252165884457300,-49112,159862,181340,252765,37198,48053,184858,245420,215328,889387,8193282,2752227,-4733337,-5474009,8116106,-7061056
1781252165884457300,-77507,260998,283310,324874,-3581,60948,291806,367866,181549,1392007,-6513310,1857790,-5223399,-3356547,-6752429,-7809940
1781252165884457300,-102190,332143,359393,378859,-33072,72068,375853,457632,116126,2396974,-6505821,3059147,-5996537,-1938438,-7205892,-8308346
1781252165884457300,-119915,364888,397755,403305,-49725,78575,421890,502347,66059,3825059,-6468576,4160033,-5007669,-1144643,-7787279,8226914
1781252165884457300,-126599,360430,396753,394395,-51609,80069,425467,499627,72720,5522416,-6427757,5092997,-4237232,-2681093,-6489343,-6693672
1781252165884457300,-121127,325749,360323,353999,-41044,76242,388996,455165,158731,7286738,-8278527,7681842,-5405089,-4142991,-5371830,-6864766
1781252165884457300,-100863,275969,302892,293158,-17312,70842,326973,383699,325522,-7868052,6928754,7836860,-8077687,-3405211,-4371372,7905268
1781252165884457300,-87718,206403,213835,207001,-10547,47861,230513,286924,534012,8313451,7536556,5829053,-8107317,-2489963,-3441509,8062344
1781252165884457300,389864,656183,627413,602059,651082,679257,794229,1199168,3054977,-6855557,-6265849,6244881,-5213959,-797805,-1975373,-5944486
1781252165884457300,-165425,-25313,-71136,-62379,-161754,-156105,-101561,-121520,4287413,-4903946,-6659855,7379010,-5490283,-249235,-1818098,-7149180
1781252165884457300,-127578,-23832,-97980,-83910,-130811,-143327,-118299,-128062,3782496,-4996271,-6565346,6864298,-6863180,-829432,-2848436,7386712
1781252165884457300,-91700,1139,-97473,-75016,-99527,-121409,-98897,-104556,3163981,-5516269,-4736338,4441542,-8102280,-3123915,-3641561,7235708
1781252165884457300,-61355,40560,-76037,-41400,-70534,-94021,-50894,-61187,2496844,-6308715,-3330900,2378610,7416221,-3202112,-4205448,7085940
1781252165884457300,-38172,83160,-43754,6583,-45384,-65185,12860,-11117,1857413,-7196086,-4213730,775548,6028259,-1463641,-4578510,5103796
1781252165884457300,-23603,116179,-13549,54434,-26902,-40780,75002,30182,1317767,-6138499,-5149413,-327307,6348397,-210025,-2942552,3510994
1781252165884457300,-15930,131230,4396,89114,-16210,-24490,120277,51638,934978,-7071735,-4150033,-948951,8115866,476989,-1541141,4239652
1781252165884457300,-13837,123018,2698,99175,-15020,-20233,136213,46001,738534,7122458,-5186967,713394,7362938,624800,-2331813,6981894
1781252165884457300,-14339,93102,-19878,79553,-23410,-28538,117978,14064,727279,6983755,-6052573,4245412,4545800,364052,-5034366,7596420
1781252165884457300,-15678,46757,-60330,30214,-42110,-49236,66717,-38525,868285,-7790323,-4824930,5437141,3978596,-1982182,-7412766,6270438
1781252165884457300,-15874,-6296,-110413,-42138,-69735,-79261,-8621,-100214,1105369,-5928699,-3682182,4459741,5627499,-4007443,-7503560,5138364
1781252165884457300,-13960,-55296,-159301,-126407,-103866,-114235,-94333,-157949,1368502,-6229771,-2683837,5355593,7453753,-3611311,-5572757,6070866
1781252165884457300,-8757,-89683,-195362,-208135,-140096,-148056,-174028,-198496,1588304,8295197,-1875860,6007739,-7302151,-2855555,-3843583,-8036058
1781252165884457300,-1416,-103758,-210749,-274824,-174616,-176189,-234046,-213959,1705808,6274452,-3157669,6454058,-7020665,-1775176,-4278647,-5872696
